Created as New Dataset,Monday, April 03 2023
cm-1,A
4000.00,0.0026
3999.00,0.0026
3998.00,0.0026
3997.00,0.0026
3996.00,0.0026
3995.00,0.0026
3994.00,0.0026
3993.00,0.0025
3992.00,0.0025
3991.00,0.0025
3990.00,0.0025
3989.00,0.0025
3988.00,0.0025
3987.00,0.0025
3986.00,0.0025
3985.00,0.0025
3984.00,0.0025
3983.00,0.0025
3982.00,0.0025
3981.00,0.0025
3980.00,0.0025
3979.00,0.0025
3978.00,0.0025
3977.00,0.0024
3976.00,0.0024
3975.00,0.0024
3974.00,0.0023
3973.00,0.0024
3972.00,0.0024
3971.00,0.0025
3970.00,0.0025
3969.00,0.0026
3968.00,0.0025
3967.00,0.0024
3966.00,0.0024
3965.00,0.0024
3964.00,0.0024
3963.00,0.0026
3962.00,0.0026
3961.00,0.0026
3960.00,0.0026
3959.00,0.0025
3958.00,0.0024
3957.00,0.0024
3956.00,0.0024
3955.00,0.0023
3954.00,0.0023
3953.00,0.0023
3952.00,0.0023
3951.00,0.0025
3950.00,0.0026
3949.00,0.0026
3948.00,0.0027
3947.00,0.0027
3946.00,0.0027
3945.00,0.0027
3944.00,0.0026
3943.00,0.0025
3942.00,0.0024
3941.00,0.0024
3940.00,0.0024
3939.00,0.0024
3938.00,0.0024
3937.00,0.0024
3936.00,0.0024
3935.00,0.0024
3934.00,0.0025
3933.00,0.0024
3932.00,0.0024
3931.00,0.0025
3930.00,0.0025
3929.00,0.0025
3928.00,0.0025
3927.00,0.0025
3926.00,0.0025
3925.00,0.0025
3924.00,0.0025
3923.00,0.0026
3922.00,0.0026
3921.00,0.0026
3920.00,0.0026
3919.00,0.0026
3918.00,0.0026
3917.00,0.0026
3916.00,0.0026
3915.00,0.0025
3914.00,0.0025
3913.00,0.0024
3912.00,0.0024
3911.00,0.0024
3910.00,0.0024
3909.00,0.0024
3908.00,0.0025
3907.00,0.0025
3906.00,0.0025
3905.00,0.0026
3904.00,0.0026
3903.00,0.0027
3902.00,0.0028
3901.00,0.0029
3900.00,0.0029
3899.00,0.0028
3898.00,0.0027
3897.00,0.0027
3896.00,0.0026
3895.00,0.0026
3894.00,0.0025
3893.00,0.0025
3892.00,0.0024
3891.00,0.0024
3890.00,0.0024
3889.00,0.0024
3888.00,0.0024
3887.00,0.0024
3886.00,0.0023
3885.00,0.0023
3884.00,0.0024
3883.00,0.0024
3882.00,0.0024
3881.00,0.0023
3880.00,0.0023
3879.00,0.0024
3878.00,0.0025
3877.00,0.0027
3876.00,0.0027
3875.00,0.0026
3874.00,0.0025
3873.00,0.0025
3872.00,0.0026
3871.00,0.0026
3870.00,0.0026
3869.00,0.0026
3868.00,0.0026
3867.00,0.0027
3866.00,0.0027
3865.00,0.0027
3864.00,0.0027
3863.00,0.0027
3862.00,0.0027
3861.00,0.0027
3860.00,0.0027
3859.00,0.0026
3858.00,0.0026
3857.00,0.0026
3856.00,0.0026
3855.00,0.0025
3854.00,0.0025
3853.00,0.0025
3852.00,0.0025
3851.00,0.0025
3850.00,0.0024
3849.00,0.0023
3848.00,0.0023
3847.00,0.0023
3846.00,0.0023
3845.00,0.0024
3844.00,0.0024
3843.00,0.0024
3842.00,0.0025
3841.00,0.0026
3840.00,0.0028
3839.00,0.0028
3838.00,0.0028
3837.00,0.0027
3836.00,0.0026
3835.00,0.0026
3834.00,0.0026
3833.00,0.0026
3832.00,0.0026
3831.00,0.0026
3830.00,0.0025
3829.00,0.0025
3828.00,0.0025
3827.00,0.0024
3826.00,0.0024
3825.00,0.0025
3824.00,0.0027
3823.00,0.0029
3822.00,0.0029
3821.00,0.0027
3820.00,0.0027
3819.00,0.0026
3818.00,0.0026
3817.00,0.0026
3816.00,0.0026
3815.00,0.0026
3814.00,0.0026
3813.00,0.0026
3812.00,0.0025
3811.00,0.0024
3810.00,0.0024
3809.00,0.0024
3808.00,0.0024
3807.00,0.0025
3806.00,0.0026
3805.00,0.0028
3804.00,0.0029
3803.00,0.0029
3802.00,0.0028
3801.00,0.0027
3800.00,0.0026
3799.00,0.0026
3798.00,0.0026
3797.00,0.0025
3796.00,0.0025
3795.00,0.0025
3794.00,0.0025
3793.00,0.0025
3792.00,0.0024
3791.00,0.0024
3790.00,0.0024
3789.00,0.0024
3788.00,0.0024
3787.00,0.0025
3786.00,0.0025
3785.00,0.0026
3784.00,0.0026
3783.00,0.0026
3782.00,0.0026
3781.00,0.0025
3780.00,0.0025
3779.00,0.0024
3778.00,0.0024
3777.00,0.0024
3776.00,0.0024
3775.00,0.0024
3774.00,0.0024
3773.00,0.0024
3772.00,0.0024
3771.00,0.0024
3770.00,0.0024
3769.00,0.0024
3768.00,0.0024
3767.00,0.0024
3766.00,0.0024
3765.00,0.0024
3764.00,0.0025
3763.00,0.0025
3762.00,0.0026
3761.00,0.0026
3760.00,0.0026
3759.00,0.0025
3758.00,0.0025
3757.00,0.0025
3756.00,0.0025
3755.00,0.0025
3754.00,0.0025
3753.00,0.0025
3752.00,0.0025
3751.00,0.0026
3750.00,0.0026
3749.00,0.0027
3748.00,0.0029
3747.00,0.0031
3746.00,0.0032
3745.00,0.0030
3744.00,0.0028
3743.00,0.0027
3742.00,0.0026
3741.00,0.0026
3740.00,0.0027
3739.00,0.0027
3738.00,0.0028
3737.00,0.0029
3736.00,0.0028
3735.00,0.0028
3734.00,0.0028
3733.00,0.0027
3732.00,0.0026
3731.00,0.0024
3730.00,0.0024
3729.00,0.0024
3728.00,0.0024
3727.00,0.0024
3726.00,0.0024
3725.00,0.0023
3724.00,0.0023
3723.00,0.0024
3722.00,0.0024
3721.00,0.0025
3720.00,0.0025
3719.00,0.0025
3718.00,0.0024
3717.00,0.0023
3716.00,0.0023
3715.00,0.0023
3714.00,0.0024
3713.00,0.0025
3712.00,0.0026
3711.00,0.0026
3710.00,0.0025
3709.00,0.0024
3708.00,0.0023
3707.00,0.0023
3706.00,0.0024
3705.00,0.0025
3704.00,0.0025
3703.00,0.0024
3702.00,0.0024
3701.00,0.0023
3700.00,0.0024
3699.00,0.0024
3698.00,0.0024
3697.00,0.0024
3696.00,0.0023
3695.00,0.0023
3694.00,0.0023
3693.00,0.0023
3692.00,0.0024
3691.00,0.0026
3690.00,0.0028
3689.00,0.0029
3688.00,0.0028
3687.00,0.0026
3686.00,0.0025
3685.00,0.0024
3684.00,0.0024
3683.00,0.0023
3682.00,0.0023
3681.00,0.0022
3680.00,0.0022
3679.00,0.0022
3678.00,0.0022
3677.00,0.0021
3676.00,0.0021
3675.00,0.0021
3674.00,0.0021
3673.00,0.0023
3672.00,0.0024
3671.00,0.0024
3670.00,0.0024
3669.00,0.0024
3668.00,0.0023
3667.00,0.0023
3666.00,0.0022
3665.00,0.0021
3664.00,0.0021
3663.00,0.0021
3662.00,0.0021
3661.00,0.0021
3660.00,0.0022
3659.00,0.0023
3658.00,0.0024
3657.00,0.0024
3656.00,0.0024
3655.00,0.0024
3654.00,0.0025
3653.00,0.0026
3652.00,0.0026
3651.00,0.0025
3650.00,0.0025
3649.00,0.0025
3648.00,0.0026
3647.00,0.0025
3646.00,0.0025
3645.00,0.0024
3644.00,0.0024
3643.00,0.0024
3642.00,0.0024
3641.00,0.0024
3640.00,0.0023
3639.00,0.0023
3638.00,0.0024
3637.00,0.0024
3636.00,0.0025
3635.00,0.0025
3634.00,0.0025
3633.00,0.0026
3632.00,0.0027
3631.00,0.0028
3630.00,0.0029
3629.00,0.0029
3628.00,0.0029
3627.00,0.0028
3626.00,0.0027
3625.00,0.0026
3624.00,0.0025
3623.00,0.0025
3622.00,0.0025
3621.00,0.0026
3620.00,0.0027
3619.00,0.0028
3618.00,0.0028
3617.00,0.0029
3616.00,0.0029
3615.00,0.0030
3614.00,0.0029
3613.00,0.0029
3612.00,0.0028
3611.00,0.0028
3610.00,0.0029
3609.00,0.0029
3608.00,0.0030
3607.00,0.0030
3606.00,0.0029
3605.00,0.0028
3604.00,0.0027
3603.00,0.0026
3602.00,0.0027
3601.00,0.0028
3600.00,0.0028
3599.00,0.0028
3598.00,0.0028
3597.00,0.0027
3596.00,0.0027
3595.00,0.0027
3594.00,0.0026
3593.00,0.0026
3592.00,0.0026
3591.00,0.0027
3590.00,0.0027
3589.00,0.0027
3588.00,0.0027
3587.00,0.0028
3586.00,0.0028
3585.00,0.0028
3584.00,0.0028
3583.00,0.0028
3582.00,0.0028
3581.00,0.0027
3580.00,0.0027
3579.00,0.0027
3578.00,0.0027
3577.00,0.0027
3576.00,0.0028
3575.00,0.0028
3574.00,0.0028
3573.00,0.0029
3572.00,0.0029
3571.00,0.0028
3570.00,0.0028
3569.00,0.0027
3568.00,0.0028
3567.00,0.0029
3566.00,0.0029
3565.00,0.0029
3564.00,0.0028
3563.00,0.0027
3562.00,0.0027
3561.00,0.0027
3560.00,0.0027
3559.00,0.0027
3558.00,0.0028
3557.00,0.0029
3556.00,0.0030
3555.00,0.0030
3554.00,0.0030
3553.00,0.0030
3552.00,0.0030
3551.00,0.0030
3550.00,0.0031
3549.00,0.0031
3548.00,0.0031
3547.00,0.0031
3546.00,0.0031
3545.00,0.0031
3544.00,0.0031
3543.00,0.0031
3542.00,0.0031
3541.00,0.0031
3540.00,0.0030
3539.00,0.0028
3538.00,0.0027
3537.00,0.0027
3536.00,0.0027
3535.00,0.0028
3534.00,0.0029
3533.00,0.0030
3532.00,0.0030
3531.00,0.0030
3530.00,0.0029
3529.00,0.0028
3528.00,0.0027
3527.00,0.0027
3526.00,0.0028
3525.00,0.0030
3524.00,0.0031
3523.00,0.0031
3522.00,0.0031
3521.00,0.0030
3520.00,0.0028
3519.00,0.0027
3518.00,0.0026
3517.00,0.0026
3516.00,0.0026
3515.00,0.0026
3514.00,0.0027
3513.00,0.0028
3512.00,0.0029
3511.00,0.0030
3510.00,0.0030
3509.00,0.0029
3508.00,0.0029
3507.00,0.0030
3506.00,0.0030
3505.00,0.0030
3504.00,0.0030
3503.00,0.0030
3502.00,0.0030
3501.00,0.0030
3500.00,0.0029
3499.00,0.0029
3498.00,0.0030
3497.00,0.0030
3496.00,0.0030
3495.00,0.0029
3494.00,0.0029
3493.00,0.0029
3492.00,0.0028
3491.00,0.0028
3490.00,0.0027
3489.00,0.0027
3488.00,0.0026
3487.00,0.0026
3486.00,0.0027
3485.00,0.0027
3484.00,0.0027
3483.00,0.0027
3482.00,0.0028
3481.00,0.0028
3480.00,0.0027
3479.00,0.0027
3478.00,0.0027
3477.00,0.0027
3476.00,0.0028
3475.00,0.0028
3474.00,0.0029
3473.00,0.0029
3472.00,0.0029
3471.00,0.0029
3470.00,0.0029
3469.00,0.0029
3468.00,0.0029
3467.00,0.0029
3466.00,0.0029
3465.00,0.0030
3464.00,0.0029
3463.00,0.0028
3462.00,0.0027
3461.00,0.0027
3460.00,0.0027
3459.00,0.0028
3458.00,0.0029
3457.00,0.0029
3456.00,0.0028
3455.00,0.0027
3454.00,0.0026
3453.00,0.0027
3452.00,0.0027
3451.00,0.0028
3450.00,0.0028
3449.00,0.0029
3448.00,0.0029
3447.00,0.0029
3446.00,0.0029
3445.00,0.0029
3444.00,0.0029
3443.00,0.0029
3442.00,0.0027
3441.00,0.0026
3440.00,0.0024
3439.00,0.0024
3438.00,0.0024
3437.00,0.0025
3436.00,0.0025
3435.00,0.0025
3434.00,0.0025
3433.00,0.0025
3432.00,0.0025
3431.00,0.0026
3430.00,0.0026
3429.00,0.0026
3428.00,0.0026
3427.00,0.0026
3426.00,0.0026
3425.00,0.0027
3424.00,0.0027
3423.00,0.0028
3422.00,0.0027
3421.00,0.0027
3420.00,0.0027
3419.00,0.0027
3418.00,0.0027
3417.00,0.0027
3416.00,0.0026
3415.00,0.0026
3414.00,0.0025
3413.00,0.0025
3412.00,0.0026
3411.00,0.0026
3410.00,0.0026
3409.00,0.0026
3408.00,0.0027
3407.00,0.0027
3406.00,0.0027
3405.00,0.0026
3404.00,0.0026
3403.00,0.0025
3402.00,0.0025
3401.00,0.0025
3400.00,0.0026
3399.00,0.0026
3398.00,0.0025
3397.00,0.0025
3396.00,0.0025
3395.00,0.0025
3394.00,0.0025
3393.00,0.0025
3392.00,0.0026
3391.00,0.0026
3390.00,0.0027
3389.00,0.0027
3388.00,0.0027
3387.00,0.0026
3386.00,0.0026
3385.00,0.0026
3384.00,0.0026
3383.00,0.0026
3382.00,0.0026
3381.00,0.0027
3380.00,0.0027
3379.00,0.0027
3378.00,0.0027
3377.00,0.0026
3376.00,0.0026
3375.00,0.0026
3374.00,0.0026
3373.00,0.0026
3372.00,0.0025
3371.00,0.0025
3370.00,0.0025
3369.00,0.0025
3368.00,0.0026
3367.00,0.0026
3366.00,0.0025
3365.00,0.0024
3364.00,0.0024
3363.00,0.0024
3362.00,0.0024
3361.00,0.0026
3360.00,0.0026
3359.00,0.0027
3358.00,0.0026
3357.00,0.0026
3356.00,0.0026
3355.00,0.0026
3354.00,0.0026
3353.00,0.0026
3352.00,0.0026
3351.00,0.0025
3350.00,0.0025
3349.00,0.0025
3348.00,0.0025
3347.00,0.0025
3346.00,0.0025
3345.00,0.0025
3344.00,0.0025
3343.00,0.0025
3342.00,0.0024
3341.00,0.0025
3340.00,0.0025
3339.00,0.0025
3338.00,0.0025
3337.00,0.0025
3336.00,0.0025
3335.00,0.0025
3334.00,0.0025
3333.00,0.0025
3332.00,0.0024
3331.00,0.0023
3330.00,0.0023
3329.00,0.0023
3328.00,0.0023
3327.00,0.0023
3326.00,0.0024
3325.00,0.0025
3324.00,0.0026
3323.00,0.0026
3322.00,0.0026
3321.00,0.0026
3320.00,0.0025
3319.00,0.0024
3318.00,0.0024
3317.00,0.0024
3316.00,0.0024
3315.00,0.0024
3314.00,0.0024
3313.00,0.0024
3312.00,0.0024
3311.00,0.0024
3310.00,0.0024
3309.00,0.0024
3308.00,0.0024
3307.00,0.0025
3306.00,0.0024
3305.00,0.0024
3304.00,0.0024
3303.00,0.0024
3302.00,0.0024
3301.00,0.0024
3300.00,0.0024
3299.00,0.0024
3298.00,0.0024
3297.00,0.0024
3296.00,0.0024
3295.00,0.0025
3294.00,0.0025
3293.00,0.0025
3292.00,0.0025
3291.00,0.0025
3290.00,0.0025
3289.00,0.0025
3288.00,0.0025
3287.00,0.0025
3286.00,0.0025
3285.00,0.0025
3284.00,0.0025
3283.00,0.0025
3282.00,0.0024
3281.00,0.0024
3280.00,0.0024
3279.00,0.0024
3278.00,0.0024
3277.00,0.0024
3276.00,0.0025
3275.00,0.0025
3274.00,0.0025
3273.00,0.0025
3272.00,0.0025
3271.00,0.0025
3270.00,0.0026
3269.00,0.0026
3268.00,0.0026
3267.00,0.0026
3266.00,0.0026
3265.00,0.0025
3264.00,0.0024
3263.00,0.0023
3262.00,0.0023
3261.00,0.0023
3260.00,0.0024
3259.00,0.0024
3258.00,0.0024
3257.00,0.0024
3256.00,0.0024
3255.00,0.0023
3254.00,0.0024
3253.00,0.0024
3252.00,0.0024
3251.00,0.0024
3250.00,0.0024
3249.00,0.0024
3248.00,0.0024
3247.00,0.0023
3246.00,0.0023
3245.00,0.0023
3244.00,0.0023
3243.00,0.0023
3242.00,0.0023
3241.00,0.0022
3240.00,0.0022
3239.00,0.0023
3238.00,0.0023
3237.00,0.0024
3236.00,0.0025
3235.00,0.0026
3234.00,0.0026
3233.00,0.0026
3232.00,0.0025
3231.00,0.0025
3230.00,0.0024
3229.00,0.0024
3228.00,0.0023
3227.00,0.0023
3226.00,0.0023
3225.00,0.0023
3224.00,0.0023
3223.00,0.0023
3222.00,0.0023
3221.00,0.0023
3220.00,0.0023
3219.00,0.0023
3218.00,0.0023
3217.00,0.0023
3216.00,0.0023
3215.00,0.0024
3214.00,0.0024
3213.00,0.0024
3212.00,0.0024
3211.00,0.0023
3210.00,0.0023
3209.00,0.0023
3208.00,0.0023
3207.00,0.0023
3206.00,0.0024
3205.00,0.0024
3204.00,0.0024
3203.00,0.0025
3202.00,0.0025
3201.00,0.0025
3200.00,0.0025
3199.00,0.0025
3198.00,0.0025
3197.00,0.0025
3196.00,0.0024
3195.00,0.0024
3194.00,0.0024
3193.00,0.0024
3192.00,0.0023
3191.00,0.0023
3190.00,0.0023
3189.00,0.0023
3188.00,0.0022
3187.00,0.0022
3186.00,0.0021
3185.00,0.0022
3184.00,0.0022
3183.00,0.0023
3182.00,0.0024
3181.00,0.0024
3180.00,0.0024
3179.00,0.0023
3178.00,0.0022
3177.00,0.0021
3176.00,0.0021
3175.00,0.0021
3174.00,0.0021
3173.00,0.0022
3172.00,0.0022
3171.00,0.0022
3170.00,0.0022
3169.00,0.0021
3168.00,0.0021
3167.00,0.0022
3166.00,0.0022
3165.00,0.0023
3164.00,0.0024
3163.00,0.0024
3162.00,0.0024
3161.00,0.0023
3160.00,0.0022
3159.00,0.0021
3158.00,0.0020
3157.00,0.0020
3156.00,0.0020
3155.00,0.0022
3154.00,0.0023
3153.00,0.0023
3152.00,0.0023
3151.00,0.0023
3150.00,0.0023
3149.00,0.0022
3148.00,0.0022
3147.00,0.0022
3146.00,0.0022
3145.00,0.0022
3144.00,0.0022
3143.00,0.0022
3142.00,0.0022
3141.00,0.0022
3140.00,0.0022
3139.00,0.0022
3138.00,0.0022
3137.00,0.0022
3136.00,0.0022
3135.00,0.0023
3134.00,0.0022
3133.00,0.0022
3132.00,0.0022
3131.00,0.0022
3130.00,0.0022
3129.00,0.0022
3128.00,0.0022
3127.00,0.0022
3126.00,0.0022
3125.00,0.0022
3124.00,0.0022
3123.00,0.0022
3122.00,0.0022
3121.00,0.0021
3120.00,0.0022
3119.00,0.0022
3118.00,0.0022
3117.00,0.0022
3116.00,0.0022
3115.00,0.0022
3114.00,0.0022
3113.00,0.0022
3112.00,0.0022
3111.00,0.0021
3110.00,0.0021
3109.00,0.0021
3108.00,0.0021
3107.00,0.0021
3106.00,0.0022
3105.00,0.0022
3104.00,0.0023
3103.00,0.0022
3102.00,0.0022
3101.00,0.0022
3100.00,0.0021
3099.00,0.0021
3098.00,0.0021
3097.00,0.0021
3096.00,0.0021
3095.00,0.0022
3094.00,0.0023
3093.00,0.0024
3092.00,0.0023
3091.00,0.0023
3090.00,0.0022
3089.00,0.0021
3088.00,0.0020
3087.00,0.0020
3086.00,0.0021
3085.00,0.0022
3084.00,0.0022
3083.00,0.0022
3082.00,0.0022
3081.00,0.0022
3080.00,0.0022
3079.00,0.0022
3078.00,0.0022
3077.00,0.0022
3076.00,0.0022
3075.00,0.0022
3074.00,0.0022
3073.00,0.0022
3072.00,0.0022
3071.00,0.0023
3070.00,0.0023
3069.00,0.0023
3068.00,0.0023
3067.00,0.0023
3066.00,0.0023
3065.00,0.0022
3064.00,0.0022
3063.00,0.0021
3062.00,0.0021
3061.00,0.0021
3060.00,0.0021
3059.00,0.0021
3058.00,0.0022
3057.00,0.0022
3056.00,0.0022
3055.00,0.0022
3054.00,0.0021
3053.00,0.0021
3052.00,0.0021
3051.00,0.0022
3050.00,0.0022
3049.00,0.0023
3048.00,0.0023
3047.00,0.0023
3046.00,0.0023
3045.00,0.0022
3044.00,0.0022
3043.00,0.0021
3042.00,0.0021
3041.00,0.0020
3040.00,0.0020
3039.00,0.0020
3038.00,0.0020
3037.00,0.0021
3036.00,0.0022
3035.00,0.0022
3034.00,0.0023
3033.00,0.0023
3032.00,0.0022
3031.00,0.0021
3030.00,0.0021
3029.00,0.0020
3028.00,0.0020
3027.00,0.0020
3026.00,0.0021
3025.00,0.0021
3024.00,0.0021
3023.00,0.0021
3022.00,0.0021
3021.00,0.0021
3020.00,0.0021
3019.00,0.0020
3018.00,0.0019
3017.00,0.0019
3016.00,0.0019
3015.00,0.0019
3014.00,0.0018
3013.00,0.0017
3012.00,0.0017
3011.00,0.0016
3010.00,0.0015
3009.00,0.0014
3008.00,0.0013
3007.00,0.0011
3006.00,0.0010
3005.00,0.0010
3004.00,0.0009
3003.00,0.0008
3002.00,0.0006
3001.00,0.0005
3000.00,0.0004
2999.00,0.0003
2998.00,0.0001
2997.00,0.0000
2996.00,-0.0000
2995.00,-0.0001
2994.00,-0.0001
2993.00,-0.0002
2992.00,-0.0002
2991.00,-0.0003
2990.00,-0.0004
2989.00,-0.0005
2988.00,-0.0006
2987.00,-0.0008
2986.00,-0.0010
2985.00,-0.0014
2984.00,-0.0017
2983.00,-0.0020
2982.00,-0.0021
2981.00,-0.0021
2980.00,-0.0019
2979.00,-0.0018
2978.00,-0.0015
2977.00,-0.0013
2976.00,-0.0012
2975.00,-0.0011
2974.00,-0.0011
2973.00,-0.0012
2972.00,-0.0013
2971.00,-0.0012
2970.00,-0.0011
2969.00,-0.0009
2968.00,-0.0007
2967.00,-0.0006
2966.00,-0.0005
2965.00,-0.0004
2964.00,-0.0003
2963.00,-0.0002
2962.00,-0.0000
2961.00,0.0000
2960.00,0.0001
2959.00,0.0001
2958.00,0.0001
2957.00,0.0001
2956.00,0.0002
2955.00,0.0004
2954.00,0.0005
2953.00,0.0006
2952.00,0.0006
2951.00,0.0007
2950.00,0.0008
2949.00,0.0008
2948.00,0.0008
2947.00,0.0008
2946.00,0.0009
2945.00,0.0009
2944.00,0.0010
2943.00,0.0011
2942.00,0.0012
2941.00,0.0013
2940.00,0.0013
2939.00,0.0013
2938.00,0.0013
2937.00,0.0013
2936.00,0.0013
2935.00,0.0014
2934.00,0.0015
2933.00,0.0015
2932.00,0.0015
2931.00,0.0016
2930.00,0.0016
2929.00,0.0016
2928.00,0.0017
2927.00,0.0017
2926.00,0.0017
2925.00,0.0016
2924.00,0.0016
2923.00,0.0015
2922.00,0.0014
2921.00,0.0013
2920.00,0.0012
2919.00,0.0011
2918.00,0.0010
2917.00,0.0009
2916.00,0.0009
2915.00,0.0009
2914.00,0.0009
2913.00,0.0010
2912.00,0.0010
2911.00,0.0010
2910.00,0.0011
2909.00,0.0011
2908.00,0.0011
2907.00,0.0010
2906.00,0.0010
2905.00,0.0010
2904.00,0.0010
2903.00,0.0009
2902.00,0.0010
2901.00,0.0010
2900.00,0.0010
2899.00,0.0009
2898.00,0.0009
2897.00,0.0009
2896.00,0.0009
2895.00,0.0008
2894.00,0.0008
2893.00,0.0008
2892.00,0.0008
2891.00,0.0008
2890.00,0.0007
2889.00,0.0007
2888.00,0.0007
2887.00,0.0008
2886.00,0.0008
2885.00,0.0007
2884.00,0.0007
2883.00,0.0007
2882.00,0.0007
2881.00,0.0008
2880.00,0.0008
2879.00,0.0009
2878.00,0.0009
2877.00,0.0010
2876.00,0.0010
2875.00,0.0010
2874.00,0.0010
2873.00,0.0010
2872.00,0.0010
2871.00,0.0011
2870.00,0.0011
2869.00,0.0012
2868.00,0.0012
2867.00,0.0012
2866.00,0.0012
2865.00,0.0012
2864.00,0.0013
2863.00,0.0013
2862.00,0.0013
2861.00,0.0014
2860.00,0.0015
2859.00,0.0016
2858.00,0.0017
2857.00,0.0018
2856.00,0.0018
2855.00,0.0018
2854.00,0.0017
2853.00,0.0017
2852.00,0.0017
2851.00,0.0017
2850.00,0.0018
2849.00,0.0017
2848.00,0.0017
2847.00,0.0017
2846.00,0.0016
2845.00,0.0016
2844.00,0.0016
2843.00,0.0016
2842.00,0.0016
2841.00,0.0016
2840.00,0.0015
2839.00,0.0015
2838.00,0.0014
2837.00,0.0015
2836.00,0.0016
2835.00,0.0017
2834.00,0.0017
2833.00,0.0017
2832.00,0.0016
2831.00,0.0015
2830.00,0.0015
2829.00,0.0015
2828.00,0.0016
2827.00,0.0016
2826.00,0.0016
2825.00,0.0016
2824.00,0.0016
2823.00,0.0016
2822.00,0.0016
2821.00,0.0015
2820.00,0.0015
2819.00,0.0014
2818.00,0.0014
2817.00,0.0014
2816.00,0.0014
2815.00,0.0014
2814.00,0.0014
2813.00,0.0014
2812.00,0.0014
2811.00,0.0014
2810.00,0.0014
2809.00,0.0014
2808.00,0.0014
2807.00,0.0014
2806.00,0.0014
2805.00,0.0015
2804.00,0.0015
2803.00,0.0015
2802.00,0.0015
2801.00,0.0015
2800.00,0.0015
2799.00,0.0015
2798.00,0.0015
2797.00,0.0015
2796.00,0.0015
2795.00,0.0015
2794.00,0.0015
2793.00,0.0015
2792.00,0.0015
2791.00,0.0015
2790.00,0.0016
2789.00,0.0016
2788.00,0.0016
2787.00,0.0015
2786.00,0.0015
2785.00,0.0015
2784.00,0.0014
2783.00,0.0014
2782.00,0.0014
2781.00,0.0013
2780.00,0.0013
2779.00,0.0013
2778.00,0.0014
2777.00,0.0014
2776.00,0.0014
2775.00,0.0014
2774.00,0.0014
2773.00,0.0015
2772.00,0.0014
2771.00,0.0014
2770.00,0.0013
2769.00,0.0012
2768.00,0.0012
2767.00,0.0012
2766.00,0.0013
2765.00,0.0013
2764.00,0.0013
2763.00,0.0013
2762.00,0.0013
2761.00,0.0013
2760.00,0.0013
2759.00,0.0013
2758.00,0.0013
2757.00,0.0013
2756.00,0.0013
2755.00,0.0013
2754.00,0.0014
2753.00,0.0014
2752.00,0.0014
2751.00,0.0014
2750.00,0.0014
2749.00,0.0014
2748.00,0.0014
2747.00,0.0014
2746.00,0.0014
2745.00,0.0014
2744.00,0.0014
2743.00,0.0014
2742.00,0.0014
2741.00,0.0014
2740.00,0.0013
2739.00,0.0013
2738.00,0.0012
2737.00,0.0012
2736.00,0.0012
2735.00,0.0012
2734.00,0.0013
2733.00,0.0013
2732.00,0.0014
2731.00,0.0014
2730.00,0.0014
2729.00,0.0013
2728.00,0.0013
2727.00,0.0013
2726.00,0.0013
2725.00,0.0013
2724.00,0.0013
2723.00,0.0013
2722.00,0.0013
2721.00,0.0013
2720.00,0.0013
2719.00,0.0013
2718.00,0.0013
2717.00,0.0013
2716.00,0.0014
2715.00,0.0014
2714.00,0.0014
2713.00,0.0013
2712.00,0.0013
2711.00,0.0014
2710.00,0.0014
2709.00,0.0014
2708.00,0.0013
2707.00,0.0013
2706.00,0.0013
2705.00,0.0013
2704.00,0.0013
2703.00,0.0013
2702.00,0.0012
2701.00,0.0012
2700.00,0.0013
2699.00,0.0013
2698.00,0.0013
2697.00,0.0013
2696.00,0.0013
2695.00,0.0013
2694.00,0.0013
2693.00,0.0014
2692.00,0.0014
2691.00,0.0014
2690.00,0.0013
2689.00,0.0013
2688.00,0.0013
2687.00,0.0013
2686.00,0.0013
2685.00,0.0013
2684.00,0.0013
2683.00,0.0012
2682.00,0.0012
2681.00,0.0012
2680.00,0.0012
2679.00,0.0012
2678.00,0.0011
2677.00,0.0011
2676.00,0.0011
2675.00,0.0011
2674.00,0.0011
2673.00,0.0012
2672.00,0.0012
2671.00,0.0012
2670.00,0.0011
2669.00,0.0011
2668.00,0.0011
2667.00,0.0011
2666.00,0.0011
2665.00,0.0012
2664.00,0.0012
2663.00,0.0012
2662.00,0.0013
2661.00,0.0013
2660.00,0.0013
2659.00,0.0013
2658.00,0.0013
2657.00,0.0013
2656.00,0.0013
2655.00,0.0013
2654.00,0.0013
2653.00,0.0013
2652.00,0.0013
2651.00,0.0013
2650.00,0.0013
2649.00,0.0013
2648.00,0.0013
2647.00,0.0012
2646.00,0.0011
2645.00,0.0011
2644.00,0.0012
2643.00,0.0012
2642.00,0.0012
2641.00,0.0013
2640.00,0.0013
2639.00,0.0013
2638.00,0.0013
2637.00,0.0012
2636.00,0.0012
2635.00,0.0012
2634.00,0.0012
2633.00,0.0013
2632.00,0.0013
2631.00,0.0012
2630.00,0.0012
2629.00,0.0011
2628.00,0.0010
2627.00,0.0010
2626.00,0.0010
2625.00,0.0011
2624.00,0.0012
2623.00,0.0013
2622.00,0.0013
2621.00,0.0013
2620.00,0.0013
2619.00,0.0013
2618.00,0.0013
2617.00,0.0013
2616.00,0.0012
2615.00,0.0011
2614.00,0.0011
2613.00,0.0011
2612.00,0.0012
2611.00,0.0013
2610.00,0.0013
2609.00,0.0012
2608.00,0.0011
2607.00,0.0011
2606.00,0.0012
2605.00,0.0012
2604.00,0.0013
2603.00,0.0013
2602.00,0.0013
2601.00,0.0013
2600.00,0.0012
2599.00,0.0012
2598.00,0.0012
2597.00,0.0011
2596.00,0.0011
2595.00,0.0010
2594.00,0.0011
2593.00,0.0011
2592.00,0.0012
2591.00,0.0012
2590.00,0.0012
2589.00,0.0012
2588.00,0.0012
2587.00,0.0011
2586.00,0.0011
2585.00,0.0010
2584.00,0.0010
2583.00,0.0011
2582.00,0.0011
2581.00,0.0012
2580.00,0.0012
2579.00,0.0012
2578.00,0.0012
2577.00,0.0012
2576.00,0.0011
2575.00,0.0010
2574.00,0.0010
2573.00,0.0011
2572.00,0.0011
2571.00,0.0011
2570.00,0.0010
2569.00,0.0010
2568.00,0.0010
2567.00,0.0012
2566.00,0.0013
2565.00,0.0013
2564.00,0.0013
2563.00,0.0012
2562.00,0.0012
2561.00,0.0012
2560.00,0.0012
2559.00,0.0012
2558.00,0.0012
2557.00,0.0012
2556.00,0.0013
2555.00,0.0013
2554.00,0.0013
2553.00,0.0012
2552.00,0.0011
2551.00,0.0010
2550.00,0.0009
2549.00,0.0009
2548.00,0.0008
2547.00,0.0008
2546.00,0.0008
2545.00,0.0008
2544.00,0.0009
2543.00,0.0010
2542.00,0.0009
2541.00,0.0008
2540.00,0.0007
2539.00,0.0006
2538.00,0.0005
2537.00,0.0005
2536.00,0.0005
2535.00,0.0006
2534.00,0.0007
2533.00,0.0009
2532.00,0.0009
2531.00,0.0009
2530.00,0.0008
2529.00,0.0008
2528.00,0.0007
2527.00,0.0007
2526.00,0.0007
2525.00,0.0007
2524.00,0.0006
2523.00,0.0006
2522.00,0.0007
2521.00,0.0008
2520.00,0.0008
2519.00,0.0009
2518.00,0.0009
2517.00,0.0010
2516.00,0.0010
2515.00,0.0010
2514.00,0.0009
2513.00,0.0009
2512.00,0.0008
2511.00,0.0009
2510.00,0.0009
2509.00,0.0010
2508.00,0.0010
2507.00,0.0010
2506.00,0.0010
2505.00,0.0009
2504.00,0.0009
2503.00,0.0009
2502.00,0.0009
2501.00,0.0010
2500.00,0.0011
2499.00,0.0011
2498.00,0.0011
2497.00,0.0011
2496.00,0.0010
2495.00,0.0010
2494.00,0.0011
2493.00,0.0011
2492.00,0.0011
2491.00,0.0011
2490.00,0.0011
2489.00,0.0011
2488.00,0.0011
2487.00,0.0011
2486.00,0.0010
2485.00,0.0009
2484.00,0.0008
2483.00,0.0008
2482.00,0.0008
2481.00,0.0009
2480.00,0.0010
2479.00,0.0011
2478.00,0.0010
2477.00,0.0010
2476.00,0.0010
2475.00,0.0009
2474.00,0.0009
2473.00,0.0009
2472.00,0.0009
2471.00,0.0009
2470.00,0.0009
2469.00,0.0008
2468.00,0.0008
2467.00,0.0008
2466.00,0.0008
2465.00,0.0008
2464.00,0.0008
2463.00,0.0008
2462.00,0.0007
2461.00,0.0007
2460.00,0.0008
2459.00,0.0009
2458.00,0.0009
2457.00,0.0010
2456.00,0.0010
2455.00,0.0010
2454.00,0.0010
2453.00,0.0011
2452.00,0.0012
2451.00,0.0012
2450.00,0.0011
2449.00,0.0009
2448.00,0.0009
2447.00,0.0009
2446.00,0.0008
2445.00,0.0008
2444.00,0.0008
2443.00,0.0008
2442.00,0.0008
2441.00,0.0008
2440.00,0.0008
2439.00,0.0008
2438.00,0.0008
2437.00,0.0008
2436.00,0.0008
2435.00,0.0007
2434.00,0.0007
2433.00,0.0007
2432.00,0.0007
2431.00,0.0008
2430.00,0.0008
2429.00,0.0009
2428.00,0.0009
2427.00,0.0008
2426.00,0.0008
2425.00,0.0008
2424.00,0.0008
2423.00,0.0009
2422.00,0.0009
2421.00,0.0009
2420.00,0.0009
2419.00,0.0009
2418.00,0.0009
2417.00,0.0008
2416.00,0.0008
2415.00,0.0007
2414.00,0.0007
2413.00,0.0008
2412.00,0.0008
2411.00,0.0008
2410.00,0.0008
2409.00,0.0008
2408.00,0.0008
2407.00,0.0008
2406.00,0.0008
2405.00,0.0008
2404.00,0.0008
2403.00,0.0008
2402.00,0.0007
2401.00,0.0007
2400.00,0.0007
2399.00,0.0007
2398.00,0.0007
2397.00,0.0007
2396.00,0.0007
2395.00,0.0006
2394.00,0.0006
2393.00,0.0006
2392.00,0.0006
2391.00,0.0006
2390.00,0.0005
2389.00,0.0005
2388.00,0.0005
2387.00,0.0005
2386.00,0.0006
2385.00,0.0005
2384.00,0.0004
2383.00,0.0004
2382.00,0.0003
2381.00,0.0004
2380.00,0.0006
2379.00,0.0007
2378.00,0.0008
2377.00,0.0008
2376.00,0.0007
2375.00,0.0006
2374.00,0.0005
2373.00,0.0005
2372.00,0.0005
2371.00,0.0005
2370.00,0.0004
2369.00,0.0001
2368.00,-0.0001
2367.00,-0.0002
2366.00,-0.0000
2365.00,0.0002
2364.00,0.0004
2363.00,0.0003
2362.00,0.0002
2361.00,0.0002
2360.00,0.0003
2359.00,0.0003
2358.00,0.0003
2357.00,0.0003
2356.00,0.0002
2355.00,0.0002
2354.00,0.0002
2353.00,0.0003
2352.00,0.0003
2351.00,0.0003
2350.00,0.0002
2349.00,0.0002
2348.00,0.0002
2347.00,0.0002
2346.00,0.0002
2345.00,0.0001
2344.00,0.0002
2343.00,0.0004
2342.00,0.0006
2341.00,0.0007
2340.00,0.0008
2339.00,0.0006
2338.00,0.0003
2337.00,0.0001
2336.00,0.0001
2335.00,0.0002
2334.00,0.0003
2333.00,0.0004
2332.00,0.0004
2331.00,0.0003
2330.00,0.0001
2329.00,0.0000
2328.00,0.0000
2327.00,0.0001
2326.00,0.0002
2325.00,0.0003
2324.00,0.0003
2323.00,0.0003
2322.00,0.0003
2321.00,0.0003
2320.00,0.0002
2319.00,0.0002
2318.00,0.0002
2317.00,0.0002
2316.00,0.0002
2315.00,0.0003
2314.00,0.0003
2313.00,0.0003
2312.00,0.0003
2311.00,0.0004
2310.00,0.0005
2309.00,0.0006
2308.00,0.0007
2307.00,0.0006
2306.00,0.0005
2305.00,0.0004
2304.00,0.0003
2303.00,0.0002
2302.00,0.0001
2301.00,0.0001
2300.00,0.0002
2299.00,0.0003
2298.00,0.0003
2297.00,0.0003
2296.00,0.0002
2295.00,0.0002
2294.00,0.0003
2293.00,0.0004
2292.00,0.0006
2291.00,0.0008
2290.00,0.0008
2289.00,0.0007
2288.00,0.0007
2287.00,0.0007
2286.00,0.0008
2285.00,0.0009
2284.00,0.0011
2283.00,0.0011
2282.00,0.0011
2281.00,0.0010
2280.00,0.0009
2279.00,0.0009
2278.00,0.0010
2277.00,0.0010
2276.00,0.0009
2275.00,0.0008
2274.00,0.0007
2273.00,0.0006
2272.00,0.0006
2271.00,0.0006
2270.00,0.0006
2269.00,0.0005
2268.00,0.0005
2267.00,0.0005
2266.00,0.0006
2265.00,0.0007
2264.00,0.0008
2263.00,0.0008
2262.00,0.0008
2261.00,0.0008
2260.00,0.0008
2259.00,0.0008
2258.00,0.0006
2257.00,0.0004
2256.00,0.0003
2255.00,0.0003
2254.00,0.0003
2253.00,0.0004
2252.00,0.0004
2251.00,0.0004
2250.00,0.0004
2249.00,0.0004
2248.00,0.0004
2247.00,0.0004
2246.00,0.0005
2245.00,0.0007
2244.00,0.0007
2243.00,0.0007
2242.00,0.0006
2241.00,0.0006
2240.00,0.0005
2239.00,0.0005
2238.00,0.0004
2237.00,0.0004
2236.00,0.0004
2235.00,0.0004
2234.00,0.0005
2233.00,0.0005
2232.00,0.0004
2231.00,0.0003
2230.00,0.0002
2229.00,0.0002
2228.00,0.0002
2227.00,0.0004
2226.00,0.0004
2225.00,0.0004
2224.00,0.0004
2223.00,0.0003
2222.00,0.0002
2221.00,0.0002
2220.00,0.0002
2219.00,0.0002
2218.00,0.0002
2217.00,0.0003
2216.00,0.0004
2215.00,0.0006
2214.00,0.0007
2213.00,0.0007
2212.00,0.0006
2211.00,0.0004
2210.00,0.0003
2209.00,0.0003
2208.00,0.0003
2207.00,0.0003
2206.00,0.0003
2205.00,0.0003
2204.00,0.0002
2203.00,0.0002
2202.00,0.0001
2201.00,0.0001
2200.00,0.0001
2199.00,0.0001
2198.00,0.0002
2197.00,0.0004
2196.00,0.0004
2195.00,0.0003
2194.00,0.0001
2193.00,0.0000
2192.00,-0.0001
2191.00,-0.0003
2190.00,-0.0005
2189.00,-0.0005
2188.00,-0.0004
2187.00,-0.0000
2186.00,0.0003
2185.00,0.0004
2184.00,0.0002
2183.00,-0.0001
2182.00,-0.0003
2181.00,-0.0003
2180.00,-0.0001
2179.00,0.0001
2178.00,0.0003
2177.00,0.0004
2176.00,0.0005
2175.00,0.0004
2174.00,0.0003
2173.00,0.0002
2172.00,0.0003
2171.00,0.0004
2170.00,0.0006
2169.00,0.0007
2168.00,0.0006
2167.00,0.0005
2166.00,0.0005
2165.00,0.0007
2164.00,0.0009
2163.00,0.0011
2162.00,0.0010
2161.00,0.0007
2160.00,0.0001
2159.00,-0.0005
2158.00,-0.0008
2157.00,-0.0008
2156.00,-0.0006
2155.00,-0.0002
2154.00,0.0001
2153.00,0.0003
2152.00,0.0003
2151.00,-0.0000
2150.00,-0.0003
2149.00,-0.0004
2148.00,-0.0003
2147.00,0.0001
2146.00,0.0004
2145.00,0.0006
2144.00,0.0007
2143.00,0.0007
2142.00,0.0007
2141.00,0.0008
2140.00,0.0008
2139.00,0.0007
2138.00,0.0006
2137.00,0.0004
2136.00,0.0002
2135.00,-0.0000
2134.00,-0.0001
2133.00,-0.0001
2132.00,0.0000
2131.00,0.0001
2130.00,0.0002
2129.00,0.0004
2128.00,0.0006
2127.00,0.0007
2126.00,0.0007
2125.00,0.0006
2124.00,0.0005
2123.00,0.0004
2122.00,0.0003
2121.00,0.0002
2120.00,0.0001
2119.00,0.0001
2118.00,0.0001
2117.00,0.0001
2116.00,0.0001
2115.00,-0.0000
2114.00,-0.0001
2113.00,-0.0001
2112.00,-0.0000
2111.00,0.0002
2110.00,0.0004
2109.00,0.0005
2108.00,0.0006
2107.00,0.0007
2106.00,0.0008
2105.00,0.0007
2104.00,0.0007
2103.00,0.0006
2102.00,0.0005
2101.00,0.0004
2100.00,0.0003
2099.00,0.0001
2098.00,0.0000
2097.00,0.0000
2096.00,0.0001
2095.00,0.0002
2094.00,0.0003
2093.00,0.0004
2092.00,0.0004
2091.00,0.0004
2090.00,0.0003
2089.00,0.0002
2088.00,0.0002
2087.00,0.0003
2086.00,0.0004
2085.00,0.0005
2084.00,0.0007
2083.00,0.0007
2082.00,0.0007
2081.00,0.0006
2080.00,0.0006
2079.00,0.0005
2078.00,0.0005
2077.00,0.0005
2076.00,0.0005
2075.00,0.0006
2074.00,0.0006
2073.00,0.0006
2072.00,0.0007
2071.00,0.0008
2070.00,0.0007
2069.00,0.0005
2068.00,0.0002
2067.00,0.0000
2066.00,0.0000
2065.00,0.0002
2064.00,0.0004
2063.00,0.0006
2062.00,0.0007
2061.00,0.0007
2060.00,0.0005
2059.00,0.0003
2058.00,0.0003
2057.00,0.0003
2056.00,0.0003
2055.00,0.0004
2054.00,0.0004
2053.00,0.0006
2052.00,0.0007
2051.00,0.0006
2050.00,0.0005
2049.00,0.0002
2048.00,0.0002
2047.00,0.0003
2046.00,0.0005
2045.00,0.0007
2044.00,0.0009
2043.00,0.0009
2042.00,0.0009
2041.00,0.0007
2040.00,0.0005
2039.00,0.0004
2038.00,0.0005
2037.00,0.0008
2036.00,0.0010
2035.00,0.0010
2034.00,0.0007
2033.00,0.0007
2032.00,0.0009
2031.00,0.0013
2030.00,0.0014
2029.00,0.0011
2028.00,0.0006
2027.00,0.0003
2026.00,0.0002
2025.00,0.0001
2024.00,0.0000
2023.00,-0.0000
2022.00,-0.0001
2021.00,-0.0001
2020.00,-0.0003
2019.00,-0.0006
2018.00,-0.0009
2017.00,-0.0011
2016.00,-0.0009
2015.00,-0.0005
2014.00,-0.0001
2013.00,0.0001
2012.00,0.0001
2011.00,-0.0000
2010.00,-0.0000
2009.00,0.0000
2008.00,0.0002
2007.00,0.0002
2006.00,0.0002
2005.00,0.0001
2004.00,0.0001
2003.00,0.0002
2002.00,0.0005
2001.00,0.0008
2000.00,0.0008
1999.00,0.0007
1998.00,0.0005
1997.00,0.0006
1996.00,0.0008
1995.00,0.0010
1994.00,0.0012
1993.00,0.0012
1992.00,0.0011
1991.00,0.0008
1990.00,0.0006
1989.00,0.0003
1988.00,0.0002
1987.00,0.0001
1986.00,0.0001
1985.00,0.0001
1984.00,0.0001
1983.00,0.0002
1982.00,0.0002
1981.00,0.0003
1980.00,0.0003
1979.00,0.0001
1978.00,-0.0001
1977.00,-0.0004
1976.00,-0.0004
1975.00,-0.0001
1974.00,0.0002
1973.00,0.0004
1972.00,0.0003
1971.00,0.0001
1970.00,0.0001
1969.00,0.0003
1968.00,0.0006
1967.00,0.0006
1966.00,0.0004
1965.00,0.0002
1964.00,0.0002
1963.00,0.0002
1962.00,0.0003
1961.00,0.0002
1960.00,0.0003
1959.00,0.0003
1958.00,0.0003
1957.00,0.0003
1956.00,0.0003
1955.00,0.0003
1954.00,0.0003
1953.00,0.0004
1952.00,0.0004
1951.00,0.0002
1950.00,0.0001
1949.00,0.0000
1948.00,0.0001
1947.00,0.0003
1946.00,0.0004
1945.00,0.0003
1944.00,0.0001
1943.00,-0.0001
1942.00,-0.0002
1941.00,-0.0002
1940.00,-0.0002
1939.00,-0.0003
1938.00,-0.0003
1937.00,-0.0003
1936.00,-0.0003
1935.00,-0.0003
1934.00,-0.0004
1933.00,-0.0004
1932.00,-0.0002
1931.00,-0.0000
1930.00,0.0002
1929.00,0.0004
1928.00,0.0005
1927.00,0.0006
1926.00,0.0006
1925.00,0.0005
1924.00,0.0004
1923.00,0.0004
1922.00,0.0004
1921.00,0.0003
1920.00,0.0002
1919.00,0.0001
1918.00,-0.0000
1917.00,-0.0000
1916.00,0.0000
1915.00,0.0001
1914.00,0.0002
1913.00,0.0003
1912.00,0.0003
1911.00,0.0003
1910.00,0.0003
1909.00,0.0002
1908.00,0.0001
1907.00,0.0000
1906.00,0.0000
1905.00,0.0001
1904.00,0.0002
1903.00,0.0003
1902.00,0.0003
1901.00,0.0003
1900.00,0.0003
1899.00,0.0003
1898.00,0.0003
1897.00,0.0003
1896.00,0.0001
1895.00,-0.0000
1894.00,-0.0000
1893.00,0.0000
1892.00,0.0001
1891.00,0.0002
1890.00,0.0002
1889.00,0.0002
1888.00,0.0002
1887.00,0.0001
1886.00,0.0000
1885.00,0.0001
1884.00,0.0002
1883.00,0.0002
1882.00,0.0002
1881.00,0.0002
1880.00,0.0001
1879.00,0.0001
1878.00,-0.0000
1877.00,-0.0001
1876.00,-0.0000
1875.00,0.0001
1874.00,0.0002
1873.00,0.0003
1872.00,0.0003
1871.00,0.0003
1870.00,0.0002
1869.00,0.0002
1868.00,0.0001
1867.00,0.0001
1866.00,0.0002
1865.00,0.0002
1864.00,0.0001
1863.00,0.0001
1862.00,0.0000
1861.00,-0.0000
1860.00,-0.0001
1859.00,-0.0001
1858.00,-0.0000
1857.00,0.0000
1856.00,0.0001
1855.00,0.0001
1854.00,0.0001
1853.00,0.0001
1852.00,0.0001
1851.00,0.0002
1850.00,0.0002
1849.00,0.0002
1848.00,0.0001
1847.00,0.0000
1846.00,0.0000
1845.00,0.0000
1844.00,0.0001
1843.00,0.0001
1842.00,0.0002
1841.00,0.0002
1840.00,0.0002
1839.00,0.0002
1838.00,0.0002
1837.00,0.0002
1836.00,0.0002
1835.00,0.0002
1834.00,0.0002
1833.00,0.0003
1832.00,0.0004
1831.00,0.0005
1830.00,0.0005
1829.00,0.0005
1828.00,0.0004
1827.00,0.0004
1826.00,0.0003
1825.00,0.0003
1824.00,0.0002
1823.00,0.0002
1822.00,0.0002
1821.00,0.0002
1820.00,0.0002
1819.00,0.0002
1818.00,0.0001
1817.00,0.0001
1816.00,0.0001
1815.00,0.0000
1814.00,0.0000
1813.00,0.0001
1812.00,0.0001
1811.00,0.0002
1810.00,0.0002
1809.00,0.0003
1808.00,0.0003
1807.00,0.0003
1806.00,0.0003
1805.00,0.0003
1804.00,0.0003
1803.00,0.0003
1802.00,0.0003
1801.00,0.0003
1800.00,0.0003
1799.00,0.0003
1798.00,0.0003
1797.00,0.0003
1796.00,0.0003
1795.00,0.0003
1794.00,0.0003
1793.00,0.0003
1792.00,0.0004
1791.00,0.0005
1790.00,0.0004
1789.00,0.0003
1788.00,0.0002
1787.00,0.0003
1786.00,0.0003
1785.00,0.0004
1784.00,0.0005
1783.00,0.0005
1782.00,0.0005
1781.00,0.0005
1780.00,0.0004
1779.00,0.0004
1778.00,0.0004
1777.00,0.0005
1776.00,0.0006
1775.00,0.0006
1774.00,0.0007
1773.00,0.0006
1772.00,0.0005
1771.00,0.0004
1770.00,0.0004
1769.00,0.0004
1768.00,0.0005
1767.00,0.0005
1766.00,0.0005
1765.00,0.0005
1764.00,0.0005
1763.00,0.0005
1762.00,0.0004
1761.00,0.0004
1760.00,0.0005
1759.00,0.0005
1758.00,0.0005
1757.00,0.0005
1756.00,0.0005
1755.00,0.0006
1754.00,0.0007
1753.00,0.0007
1752.00,0.0006
1751.00,0.0006
1750.00,0.0007
1749.00,0.0008
1748.00,0.0008
1747.00,0.0008
1746.00,0.0008
1745.00,0.0008
1744.00,0.0008
1743.00,0.0008
1742.00,0.0008
1741.00,0.0008
1740.00,0.0008
1739.00,0.0007
1738.00,0.0007
1737.00,0.0006
1736.00,0.0006
1735.00,0.0007
1734.00,0.0006
1733.00,0.0006
1732.00,0.0006
1731.00,0.0006
1730.00,0.0006
1729.00,0.0006
1728.00,0.0006
1727.00,0.0006
1726.00,0.0007
1725.00,0.0007
1724.00,0.0007
1723.00,0.0007
1722.00,0.0007
1721.00,0.0007
1720.00,0.0007
1719.00,0.0007
1718.00,0.0008
1717.00,0.0009
1716.00,0.0009
1715.00,0.0009
1714.00,0.0009
1713.00,0.0009
1712.00,0.0009
1711.00,0.0009
1710.00,0.0009
1709.00,0.0009
1708.00,0.0010
1707.00,0.0010
1706.00,0.0010
1705.00,0.0010
1704.00,0.0010
1703.00,0.0010
1702.00,0.0010
1701.00,0.0009
1700.00,0.0007
1699.00,0.0007
1698.00,0.0008
1697.00,0.0009
1696.00,0.0010
1695.00,0.0010
1694.00,0.0009
1693.00,0.0009
1692.00,0.0009
1691.00,0.0009
1690.00,0.0010
1689.00,0.0010
1688.00,0.0010
1687.00,0.0010
1686.00,0.0011
1685.00,0.0010
1684.00,0.0009
1683.00,0.0008
1682.00,0.0007
1681.00,0.0007
1680.00,0.0006
1679.00,0.0006
1678.00,0.0007
1677.00,0.0008
1676.00,0.0009
1675.00,0.0010
1674.00,0.0009
1673.00,0.0009
1672.00,0.0008
1671.00,0.0007
1670.00,0.0007
1669.00,0.0007
1668.00,0.0007
1667.00,0.0007
1666.00,0.0006
1665.00,0.0006
1664.00,0.0005
1663.00,0.0004
1662.00,0.0004
1661.00,0.0005
1660.00,0.0006
1659.00,0.0007
1658.00,0.0008
1657.00,0.0008
1656.00,0.0007
1655.00,0.0005
1654.00,0.0003
1653.00,0.0005
1652.00,0.0006
1651.00,0.0007
1650.00,0.0006
1649.00,0.0006
1648.00,0.0006
1647.00,0.0005
1646.00,0.0005
1645.00,0.0006
1644.00,0.0006
1643.00,0.0007
1642.00,0.0006
1641.00,0.0006
1640.00,0.0005
1639.00,0.0005
1638.00,0.0006
1637.00,0.0006
1636.00,0.0007
1635.00,0.0007
1634.00,0.0005
1633.00,0.0004
1632.00,0.0002
1631.00,0.0001
1630.00,0.0001
1629.00,0.0002
1628.00,0.0002
1627.00,0.0003
1626.00,0.0004
1625.00,0.0004
1624.00,0.0004
1623.00,0.0003
1622.00,0.0003
1621.00,0.0003
1620.00,0.0004
1619.00,0.0004
1618.00,0.0004
1617.00,0.0003
1616.00,0.0002
1615.00,0.0002
1614.00,0.0001
1613.00,0.0001
1612.00,0.0002
1611.00,0.0002
1610.00,0.0002
1609.00,0.0001
1608.00,0.0000
1607.00,-0.0000
1606.00,0.0000
1605.00,0.0001
1604.00,0.0001
1603.00,0.0001
1602.00,0.0000
1601.00,-0.0001
1600.00,-0.0002
1599.00,-0.0003
1598.00,-0.0003
1597.00,-0.0002
1596.00,-0.0001
1595.00,-0.0000
1594.00,0.0000
1593.00,-0.0000
1592.00,-0.0001
1591.00,-0.0002
1590.00,-0.0003
1589.00,-0.0003
1588.00,-0.0003
1587.00,-0.0001
1586.00,-0.0001
1585.00,-0.0001
1584.00,-0.0001
1583.00,-0.0002
1582.00,-0.0002
1581.00,-0.0002
1580.00,-0.0002
1579.00,-0.0000
1578.00,0.0001
1577.00,0.0002
1576.00,0.0001
1575.00,-0.0001
1574.00,-0.0003
1573.00,-0.0004
1572.00,-0.0004
1571.00,-0.0003
1570.00,-0.0003
1569.00,-0.0004
1568.00,-0.0003
1567.00,-0.0003
1566.00,-0.0003
1565.00,-0.0004
1564.00,-0.0004
1563.00,-0.0004
1562.00,-0.0003
1561.00,-0.0002
1560.00,-0.0000
1559.00,-0.0000
1558.00,-0.0003
1557.00,-0.0005
1556.00,-0.0006
1555.00,-0.0006
1554.00,-0.0005
1553.00,-0.0004
1552.00,-0.0004
1551.00,-0.0004
1550.00,-0.0004
1549.00,-0.0005
1548.00,-0.0006
1547.00,-0.0006
1546.00,-0.0005
1545.00,-0.0005
1544.00,-0.0006
1543.00,-0.0007
1542.00,-0.0008
1541.00,-0.0010
1540.00,-0.0010
1539.00,-0.0010
1538.00,-0.0010
1537.00,-0.0009
1536.00,-0.0009
1535.00,-0.0009
1534.00,-0.0009
1533.00,-0.0008
1532.00,-0.0008
1531.00,-0.0007
1530.00,-0.0006
1529.00,-0.0006
1528.00,-0.0005
1527.00,-0.0006
1526.00,-0.0008
1525.00,-0.0009
1524.00,-0.0009
1523.00,-0.0009
1522.00,-0.0008
1521.00,-0.0007
1520.00,-0.0006
1519.00,-0.0005
1518.00,-0.0005
1517.00,-0.0006
1516.00,-0.0007
1515.00,-0.0007
1514.00,-0.0007
1513.00,-0.0007
1512.00,-0.0007
1511.00,-0.0007
1510.00,-0.0007
1509.00,-0.0007
1508.00,-0.0007
1507.00,-0.0007
1506.00,-0.0007
1505.00,-0.0006
1504.00,-0.0006
1503.00,-0.0006
1502.00,-0.0006
1501.00,-0.0007
1500.00,-0.0007
1499.00,-0.0006
1498.00,-0.0006
1497.00,-0.0005
1496.00,-0.0005
1495.00,-0.0006
1494.00,-0.0007
1493.00,-0.0008
1492.00,-0.0009
1491.00,-0.0009
1490.00,-0.0008
1489.00,-0.0007
1488.00,-0.0006
1487.00,-0.0006
1486.00,-0.0007
1485.00,-0.0008
1484.00,-0.0009
1483.00,-0.0009
1482.00,-0.0009
1481.00,-0.0009
1480.00,-0.0009
1479.00,-0.0009
1478.00,-0.0009
1477.00,-0.0009
1476.00,-0.0009
1475.00,-0.0009
1474.00,-0.0010
1473.00,-0.0010
1472.00,-0.0009
1471.00,-0.0009
1470.00,-0.0008
1469.00,-0.0007
1468.00,-0.0006
1467.00,-0.0006
1466.00,-0.0007
1465.00,-0.0008
1464.00,-0.0009
1463.00,-0.0009
1462.00,-0.0010
1461.00,-0.0011
1460.00,-0.0011
1459.00,-0.0011
1458.00,-0.0011
1457.00,-0.0011
1456.00,-0.0011
1455.00,-0.0011
1454.00,-0.0011
1453.00,-0.0011
1452.00,-0.0010
1451.00,-0.0010
1450.00,-0.0009
1449.00,-0.0008
1448.00,-0.0007
1447.00,-0.0006
1446.00,-0.0006
1445.00,-0.0007
1444.00,-0.0007
1443.00,-0.0008
1442.00,-0.0009
1441.00,-0.0009
1440.00,-0.0008
1439.00,-0.0007
1438.00,-0.0007
1437.00,-0.0007
1436.00,-0.0007
1435.00,-0.0008
1434.00,-0.0008
1433.00,-0.0007
1432.00,-0.0007
1431.00,-0.0007
1430.00,-0.0008
1429.00,-0.0009
1428.00,-0.0009
1427.00,-0.0009
1426.00,-0.0009
1425.00,-0.0008
1424.00,-0.0008
1423.00,-0.0008
1422.00,-0.0008
1421.00,-0.0008
1420.00,-0.0008
1419.00,-0.0008
1418.00,-0.0008
1417.00,-0.0008
1416.00,-0.0007
1415.00,-0.0007
1414.00,-0.0008
1413.00,-0.0009
1412.00,-0.0010
1411.00,-0.0011
1410.00,-0.0012
1409.00,-0.0012
1408.00,-0.0012
1407.00,-0.0012
1406.00,-0.0012
1405.00,-0.0013
1404.00,-0.0015
1403.00,-0.0017
1402.00,-0.0018
1401.00,-0.0019
1400.00,-0.0020
1399.00,-0.0020
1398.00,-0.0021
1397.00,-0.0021
1396.00,-0.0021
1395.00,-0.0022
1394.00,-0.0022
1393.00,-0.0023
1392.00,-0.0023
1391.00,-0.0022
1390.00,-0.0022
1389.00,-0.0023
1388.00,-0.0023
1387.00,-0.0024
1386.00,-0.0024
1385.00,-0.0025
1384.00,-0.0025
1383.00,-0.0025
1382.00,-0.0024
1381.00,-0.0023
1380.00,-0.0023
1379.00,-0.0023
1378.00,-0.0023
1377.00,-0.0022
1376.00,-0.0021
1375.00,-0.0020
1374.00,-0.0019
1373.00,-0.0018
1372.00,-0.0018
1371.00,-0.0017
1370.00,-0.0017
1369.00,-0.0018
1368.00,-0.0018
1367.00,-0.0018
1366.00,-0.0018
1365.00,-0.0018
1364.00,-0.0018
1363.00,-0.0017
1362.00,-0.0017
1361.00,-0.0016
1360.00,-0.0016
1359.00,-0.0016
1358.00,-0.0015
1357.00,-0.0014
1356.00,-0.0013
1355.00,-0.0013
1354.00,-0.0013
1353.00,-0.0014
1352.00,-0.0014
1351.00,-0.0015
1350.00,-0.0015
1349.00,-0.0015
1348.00,-0.0015
1347.00,-0.0015
1346.00,-0.0015
1345.00,-0.0015
1344.00,-0.0016
1343.00,-0.0016
1342.00,-0.0015
1341.00,-0.0014
1340.00,-0.0013
1339.00,-0.0012
1338.00,-0.0012
1337.00,-0.0013
1336.00,-0.0014
1335.00,-0.0014
1334.00,-0.0014
1333.00,-0.0014
1332.00,-0.0014
1331.00,-0.0014
1330.00,-0.0014
1329.00,-0.0014
1328.00,-0.0014
1327.00,-0.0014
1326.00,-0.0014
1325.00,-0.0013
1324.00,-0.0013
1323.00,-0.0012
1322.00,-0.0012
1321.00,-0.0011
1320.00,-0.0011
1319.00,-0.0012
1318.00,-0.0013
1317.00,-0.0014
1316.00,-0.0014
1315.00,-0.0014
1314.00,-0.0014
1313.00,-0.0013
1312.00,-0.0012
1311.00,-0.0012
1310.00,-0.0011
1309.00,-0.0011
1308.00,-0.0011
1307.00,-0.0011
1306.00,-0.0011
1305.00,-0.0011
1304.00,-0.0011
1303.00,-0.0011
1302.00,-0.0010
1301.00,-0.0010
1300.00,-0.0011
1299.00,-0.0011
1298.00,-0.0012
1297.00,-0.0013
1296.00,-0.0014
1295.00,-0.0014
1294.00,-0.0013
1293.00,-0.0012
1292.00,-0.0011
1291.00,-0.0011
1290.00,-0.0011
1289.00,-0.0012
1288.00,-0.0012
1287.00,-0.0013
1286.00,-0.0014
1285.00,-0.0014
1284.00,-0.0012
1283.00,-0.0011
1282.00,-0.0011
1281.00,-0.0012
1280.00,-0.0013
1279.00,-0.0015
1278.00,-0.0016
1277.00,-0.0016
1276.00,-0.0016
1275.00,-0.0015
1274.00,-0.0015
1273.00,-0.0015
1272.00,-0.0016
1271.00,-0.0017
1270.00,-0.0017
1269.00,-0.0018
1268.00,-0.0018
1267.00,-0.0017
1266.00,-0.0017
1265.00,-0.0017
1264.00,-0.0018
1263.00,-0.0019
1262.00,-0.0020
1261.00,-0.0021
1260.00,-0.0020
1259.00,-0.0019
1258.00,-0.0018
1257.00,-0.0019
1256.00,-0.0020
1255.00,-0.0021
1254.00,-0.0021
1253.00,-0.0021
1252.00,-0.0020
1251.00,-0.0020
1250.00,-0.0020
1249.00,-0.0020
1248.00,-0.0020
1247.00,-0.0019
1246.00,-0.0019
1245.00,-0.0018
1244.00,-0.0018
1243.00,-0.0018
1242.00,-0.0018
1241.00,-0.0019
1240.00,-0.0019
1239.00,-0.0019
1238.00,-0.0018
1237.00,-0.0018
1236.00,-0.0017
1235.00,-0.0016
1234.00,-0.0016
1233.00,-0.0016
1232.00,-0.0016
1231.00,-0.0016
1230.00,-0.0017
1229.00,-0.0016
1228.00,-0.0015
1227.00,-0.0014
1226.00,-0.0014
1225.00,-0.0013
1224.00,-0.0014
1223.00,-0.0015
1222.00,-0.0015
1221.00,-0.0014
1220.00,-0.0013
1219.00,-0.0013
1218.00,-0.0013
1217.00,-0.0012
1216.00,-0.0012
1215.00,-0.0012
1214.00,-0.0012
1213.00,-0.0012
1212.00,-0.0012
1211.00,-0.0011
1210.00,-0.0010
1209.00,-0.0010
1208.00,-0.0009
1207.00,-0.0010
1206.00,-0.0011
1205.00,-0.0012
1204.00,-0.0013
1203.00,-0.0012
1202.00,-0.0011
1201.00,-0.0010
1200.00,-0.0010
1199.00,-0.0010
1198.00,-0.0010
1197.00,-0.0011
1196.00,-0.0012
1195.00,-0.0013
1194.00,-0.0013
1193.00,-0.0012
1192.00,-0.0011
1191.00,-0.0011
1190.00,-0.0011
1189.00,-0.0012
1188.00,-0.0013
1187.00,-0.0014
1186.00,-0.0014
1185.00,-0.0014
1184.00,-0.0013
1183.00,-0.0013
1182.00,-0.0014
1181.00,-0.0016
1180.00,-0.0017
1179.00,-0.0017
1178.00,-0.0018
1177.00,-0.0017
1176.00,-0.0017
1175.00,-0.0016
1174.00,-0.0016
1173.00,-0.0017
1172.00,-0.0019
1171.00,-0.0020
1170.00,-0.0021
1169.00,-0.0022
1168.00,-0.0021
1167.00,-0.0021
1166.00,-0.0020
1165.00,-0.0021
1164.00,-0.0022
1163.00,-0.0022
1162.00,-0.0023
1161.00,-0.0023
1160.00,-0.0022
1159.00,-0.0022
1158.00,-0.0022
1157.00,-0.0022
1156.00,-0.0022
1155.00,-0.0022
1154.00,-0.0021
1153.00,-0.0021
1152.00,-0.0022
1151.00,-0.0023
1150.00,-0.0024
1149.00,-0.0025
1148.00,-0.0026
1147.00,-0.0025
1146.00,-0.0025
1145.00,-0.0024
1144.00,-0.0023
1143.00,-0.0022
1142.00,-0.0021
1141.00,-0.0020
1140.00,-0.0021
1139.00,-0.0022
1138.00,-0.0022
1137.00,-0.0022
1136.00,-0.0020
1135.00,-0.0018
1134.00,-0.0016
1133.00,-0.0016
1132.00,-0.0017
1131.00,-0.0018
1130.00,-0.0019
1129.00,-0.0018
1128.00,-0.0017
1127.00,-0.0017
1126.00,-0.0018
1125.00,-0.0019
1124.00,-0.0019
1123.00,-0.0018
1122.00,-0.0016
1121.00,-0.0013
1120.00,-0.0012
1119.00,-0.0012
1118.00,-0.0013
1117.00,-0.0013
1116.00,-0.0013
1115.00,-0.0012
1114.00,-0.0012
1113.00,-0.0012
1112.00,-0.0013
1111.00,-0.0013
1110.00,-0.0012
1109.00,-0.0012
1108.00,-0.0013
1107.00,-0.0015
1106.00,-0.0016
1105.00,-0.0017
1104.00,-0.0017
1103.00,-0.0015
1102.00,-0.0013
1101.00,-0.0012
1100.00,-0.0013
1099.00,-0.0014
1098.00,-0.0015
1097.00,-0.0016
1096.00,-0.0017
1095.00,-0.0018
1094.00,-0.0018
1093.00,-0.0018
1092.00,-0.0017
1091.00,-0.0017
1090.00,-0.0018
1089.00,-0.0020
1088.00,-0.0021
1087.00,-0.0022
1086.00,-0.0020
1085.00,-0.0019
1084.00,-0.0019
1083.00,-0.0019
1082.00,-0.0019
1081.00,-0.0019
1080.00,-0.0018
1079.00,-0.0016
1078.00,-0.0014
1077.00,-0.0012
1076.00,-0.0013
1075.00,-0.0016
1074.00,-0.0020
1073.00,-0.0021
1072.00,-0.0021
1071.00,-0.0021
1070.00,-0.0021
1069.00,-0.0023
1068.00,-0.0024
1067.00,-0.0023
1066.00,-0.0021
1065.00,-0.0019
1064.00,-0.0017
1063.00,-0.0016
1062.00,-0.0015
1061.00,-0.0017
1060.00,-0.0019
1059.00,-0.0021
1058.00,-0.0022
1057.00,-0.0021
1056.00,-0.0019
1055.00,-0.0016
1054.00,-0.0013
1053.00,-0.0011
1052.00,-0.0011
1051.00,-0.0011
1050.00,-0.0012
1049.00,-0.0012
1048.00,-0.0012
1047.00,-0.0011
1046.00,-0.0011
1045.00,-0.0010
1044.00,-0.0009
1043.00,-0.0009
1042.00,-0.0012
1041.00,-0.0015
1040.00,-0.0017
1039.00,-0.0017
1038.00,-0.0014
1037.00,-0.0011
1036.00,-0.0010
1035.00,-0.0011
1034.00,-0.0014
1033.00,-0.0016
1032.00,-0.0016
1031.00,-0.0016
1030.00,-0.0016
1029.00,-0.0017
1028.00,-0.0017
1027.00,-0.0017
1026.00,-0.0016
1025.00,-0.0016
1024.00,-0.0016
1023.00,-0.0016
1022.00,-0.0016
1021.00,-0.0016
1020.00,-0.0016
1019.00,-0.0016
1018.00,-0.0017
1017.00,-0.0018
1016.00,-0.0019
1015.00,-0.0018
1014.00,-0.0016
1013.00,-0.0014
1012.00,-0.0012
1011.00,-0.0012
1010.00,-0.0012
1009.00,-0.0014
1008.00,-0.0016
1007.00,-0.0018
1006.00,-0.0018
1005.00,-0.0017
1004.00,-0.0014
1003.00,-0.0012
1002.00,-0.0011
1001.00,-0.0012
1000.00,-0.0015
999.00,-0.0019
998.00,-0.0022
997.00,-0.0021
996.00,-0.0019
995.00,-0.0016
994.00,-0.0015
993.00,-0.0017
992.00,-0.0020
991.00,-0.0023
990.00,-0.0023
989.00,-0.0022
988.00,-0.0020
987.00,-0.0017
986.00,-0.0015
985.00,-0.0016
984.00,-0.0018
983.00,-0.0022
982.00,-0.0024
981.00,-0.0024
980.00,-0.0022
979.00,-0.0020
978.00,-0.0020
977.00,-0.0022
976.00,-0.0025
975.00,-0.0028
974.00,-0.0029
973.00,-0.0028
972.00,-0.0026
971.00,-0.0025
970.00,-0.0024
969.00,-0.0025
968.00,-0.0027
967.00,-0.0030
966.00,-0.0033
965.00,-0.0034
964.00,-0.0034
963.00,-0.0033
962.00,-0.0031
961.00,-0.0030
960.00,-0.0031
959.00,-0.0033
958.00,-0.0034
957.00,-0.0034
956.00,-0.0034
955.00,-0.0033
954.00,-0.0033
953.00,-0.0033
952.00,-0.0033
951.00,-0.0033
950.00,-0.0033
949.00,-0.0032
948.00,-0.0032
947.00,-0.0031
946.00,-0.0030
945.00,-0.0029
944.00,-0.0030
943.00,-0.0032
942.00,-0.0034
941.00,-0.0035
940.00,-0.0034
939.00,-0.0032
938.00,-0.0029
937.00,-0.0027
936.00,-0.0028
935.00,-0.0030
934.00,-0.0031
933.00,-0.0030
932.00,-0.0028
931.00,-0.0025
930.00,-0.0023
929.00,-0.0021
928.00,-0.0021
927.00,-0.0021
926.00,-0.0022
925.00,-0.0023
924.00,-0.0023
923.00,-0.0022
922.00,-0.0020
921.00,-0.0019
920.00,-0.0019
919.00,-0.0020
918.00,-0.0022
917.00,-0.0023
916.00,-0.0022
915.00,-0.0020
914.00,-0.0018
913.00,-0.0018
912.00,-0.0018
911.00,-0.0019
910.00,-0.0022
909.00,-0.0026
908.00,-0.0029
907.00,-0.0030
906.00,-0.0028
905.00,-0.0024
904.00,-0.0019
903.00,-0.0016
902.00,-0.0016
901.00,-0.0018
900.00,-0.0020
899.00,-0.0021
898.00,-0.0019
897.00,-0.0017
896.00,-0.0016
895.00,-0.0017
894.00,-0.0019
893.00,-0.0022
892.00,-0.0024
891.00,-0.0024
890.00,-0.0023
889.00,-0.0020
888.00,-0.0018
887.00,-0.0019
886.00,-0.0023
885.00,-0.0026
884.00,-0.0028
883.00,-0.0027
882.00,-0.0024
881.00,-0.0021
880.00,-0.0019
879.00,-0.0018
878.00,-0.0019
877.00,-0.0023
876.00,-0.0026
875.00,-0.0028
874.00,-0.0028
873.00,-0.0028
872.00,-0.0027
871.00,-0.0027
870.00,-0.0028
869.00,-0.0029
868.00,-0.0030
867.00,-0.0031
866.00,-0.0030
865.00,-0.0027
864.00,-0.0024
863.00,-0.0022
862.00,-0.0022
861.00,-0.0023
860.00,-0.0025
859.00,-0.0027
858.00,-0.0029
857.00,-0.0029
856.00,-0.0027
855.00,-0.0024
854.00,-0.0022
853.00,-0.0021
852.00,-0.0023
851.00,-0.0026
850.00,-0.0027
849.00,-0.0026
848.00,-0.0024
847.00,-0.0021
846.00,-0.0018
845.00,-0.0017
844.00,-0.0017
843.00,-0.0019
842.00,-0.0020
841.00,-0.0021
840.00,-0.0022
839.00,-0.0024
838.00,-0.0025
837.00,-0.0027
836.00,-0.0030
835.00,-0.0032
834.00,-0.0033
833.00,-0.0032
832.00,-0.0029
831.00,-0.0026
830.00,-0.0026
829.00,-0.0028
828.00,-0.0031
827.00,-0.0033
826.00,-0.0032
825.00,-0.0029
824.00,-0.0025
823.00,-0.0022
822.00,-0.0021
821.00,-0.0021
820.00,-0.0022
819.00,-0.0024
818.00,-0.0026
817.00,-0.0029
816.00,-0.0031
815.00,-0.0031
814.00,-0.0029
813.00,-0.0029
812.00,-0.0030
811.00,-0.0032
810.00,-0.0034
809.00,-0.0034
808.00,-0.0031
807.00,-0.0028
806.00,-0.0026
805.00,-0.0026
804.00,-0.0029
803.00,-0.0032
802.00,-0.0035
801.00,-0.0034
800.00,-0.0031
799.00,-0.0026
798.00,-0.0023
797.00,-0.0022
796.00,-0.0022
795.00,-0.0024
794.00,-0.0026
793.00,-0.0028
792.00,-0.0029
791.00,-0.0028
790.00,-0.0026
789.00,-0.0025
788.00,-0.0025
787.00,-0.0027
786.00,-0.0028
785.00,-0.0027
784.00,-0.0024
783.00,-0.0021
782.00,-0.0019
781.00,-0.0019
780.00,-0.0021
779.00,-0.0024
778.00,-0.0027
777.00,-0.0029
776.00,-0.0029
775.00,-0.0028
774.00,-0.0026
773.00,-0.0024
772.00,-0.0022
771.00,-0.0022
770.00,-0.0023
769.00,-0.0025
768.00,-0.0027
767.00,-0.0029
766.00,-0.0032
765.00,-0.0033
764.00,-0.0034
763.00,-0.0034
762.00,-0.0036
761.00,-0.0037
760.00,-0.0037
759.00,-0.0033
758.00,-0.0028
757.00,-0.0024
756.00,-0.0025
755.00,-0.0028
754.00,-0.0033
753.00,-0.0036
752.00,-0.0037
751.00,-0.0035
750.00,-0.0032
749.00,-0.0029
748.00,-0.0026
747.00,-0.0025
746.00,-0.0026
745.00,-0.0029
744.00,-0.0034
743.00,-0.0039
742.00,-0.0040
741.00,-0.0040
740.00,-0.0039
739.00,-0.0039
738.00,-0.0039
737.00,-0.0038
736.00,-0.0039
735.00,-0.0040
734.00,-0.0041
733.00,-0.0041
732.00,-0.0040
731.00,-0.0040
730.00,-0.0040
729.00,-0.0040
728.00,-0.0038
727.00,-0.0035
726.00,-0.0030
725.00,-0.0027
724.00,-0.0025
723.00,-0.0027
722.00,-0.0030
721.00,-0.0033
720.00,-0.0036
719.00,-0.0038
718.00,-0.0039
717.00,-0.0038
716.00,-0.0038
715.00,-0.0037
714.00,-0.0037
713.00,-0.0036
712.00,-0.0036
711.00,-0.0037
710.00,-0.0039
709.00,-0.0042
708.00,-0.0043
707.00,-0.0044
706.00,-0.0044
705.00,-0.0042
704.00,-0.0039
703.00,-0.0035
702.00,-0.0033
701.00,-0.0032
700.00,-0.0033
699.00,-0.0035
698.00,-0.0039
697.00,-0.0043
696.00,-0.0047
695.00,-0.0049
694.00,-0.0047
693.00,-0.0041
692.00,-0.0035
691.00,-0.0030
690.00,-0.0026
689.00,-0.0025
688.00,-0.0029
687.00,-0.0036
686.00,-0.0042
685.00,-0.0042
684.00,-0.0040
683.00,-0.0039
682.00,-0.0040
681.00,-0.0042
680.00,-0.0044
679.00,-0.0044
678.00,-0.0043
677.00,-0.0041
676.00,-0.0038
675.00,-0.0037
674.00,-0.0039
673.00,-0.0041
672.00,-0.0043
671.00,-0.0042
670.00,-0.0038
669.00,-0.0029
668.00,-0.0018
667.00,-0.0014
666.00,-0.0017
665.00,-0.0022
664.00,-0.0030
663.00,-0.0042
662.00,-0.0052
661.00,-0.0059
660.00,-0.0059
659.00,-0.0055
658.00,-0.0049
657.00,-0.0043
656.00,-0.0041
655.00,-0.0044
654.00,-0.0050
653.00,-0.0055
652.00,-0.0058
651.00,-0.0057
650.00,-0.0053
