Created as New Dataset,Monday, April 03 2023
cm-1,A
4000.00,0.0009
3999.00,0.0009
3998.00,0.0009
3997.00,0.0009
3996.00,0.0009
3995.00,0.0009
3994.00,0.0009
3993.00,0.0010
3992.00,0.0010
3991.00,0.0009
3990.00,0.0009
3989.00,0.0009
3988.00,0.0009
3987.00,0.0009
3986.00,0.0009
3985.00,0.0009
3984.00,0.0009
3983.00,0.0009
3982.00,0.0008
3981.00,0.0009
3980.00,0.0009
3979.00,0.0010
3978.00,0.0010
3977.00,0.0010
3976.00,0.0010
3975.00,0.0009
3974.00,0.0009
3973.00,0.0009
3972.00,0.0009
3971.00,0.0009
3970.00,0.0009
3969.00,0.0009
3968.00,0.0009
3967.00,0.0009
3966.00,0.0009
3965.00,0.0009
3964.00,0.0010
3963.00,0.0010
3962.00,0.0010
3961.00,0.0010
3960.00,0.0010
3959.00,0.0010
3958.00,0.0010
3957.00,0.0010
3956.00,0.0010
3955.00,0.0010
3954.00,0.0010
3953.00,0.0010
3952.00,0.0010
3951.00,0.0011
3950.00,0.0011
3949.00,0.0012
3948.00,0.0012
3947.00,0.0012
3946.00,0.0012
3945.00,0.0011
3944.00,0.0010
3943.00,0.0009
3942.00,0.0009
3941.00,0.0009
3940.00,0.0010
3939.00,0.0010
3938.00,0.0011
3937.00,0.0011
3936.00,0.0012
3935.00,0.0013
3934.00,0.0014
3933.00,0.0014
3932.00,0.0013
3931.00,0.0012
3930.00,0.0011
3929.00,0.0011
3928.00,0.0010
3927.00,0.0010
3926.00,0.0010
3925.00,0.0010
3924.00,0.0010
3923.00,0.0011
3922.00,0.0011
3921.00,0.0012
3920.00,0.0013
3919.00,0.0014
3918.00,0.0014
3917.00,0.0013
3916.00,0.0013
3915.00,0.0012
3914.00,0.0011
3913.00,0.0011
3912.00,0.0011
3911.00,0.0011
3910.00,0.0011
3909.00,0.0011
3908.00,0.0012
3907.00,0.0012
3906.00,0.0014
3905.00,0.0015
3904.00,0.0017
3903.00,0.0018
3902.00,0.0018
3901.00,0.0017
3900.00,0.0016
3899.00,0.0015
3898.00,0.0014
3897.00,0.0014
3896.00,0.0014
3895.00,0.0014
3894.00,0.0013
3893.00,0.0013
3892.00,0.0013
3891.00,0.0013
3890.00,0.0014
3889.00,0.0015
3888.00,0.0016
3887.00,0.0017
3886.00,0.0016
3885.00,0.0015
3884.00,0.0014
3883.00,0.0014
3882.00,0.0013
3881.00,0.0012
3880.00,0.0012
3879.00,0.0012
3878.00,0.0013
3877.00,0.0013
3876.00,0.0012
3875.00,0.0011
3874.00,0.0011
3873.00,0.0013
3872.00,0.0014
3871.00,0.0015
3870.00,0.0015
3869.00,0.0014
3868.00,0.0015
3867.00,0.0017
3866.00,0.0017
3865.00,0.0016
3864.00,0.0014
3863.00,0.0014
3862.00,0.0014
3861.00,0.0015
3860.00,0.0016
3859.00,0.0015
3858.00,0.0015
3857.00,0.0014
3856.00,0.0016
3855.00,0.0017
3854.00,0.0017
3853.00,0.0016
3852.00,0.0016
3851.00,0.0016
3850.00,0.0016
3849.00,0.0017
3848.00,0.0016
3847.00,0.0016
3846.00,0.0015
3845.00,0.0015
3844.00,0.0015
3843.00,0.0015
3842.00,0.0015
3841.00,0.0015
3840.00,0.0016
3839.00,0.0016
3838.00,0.0015
3837.00,0.0015
3836.00,0.0015
3835.00,0.0015
3834.00,0.0015
3833.00,0.0015
3832.00,0.0015
3831.00,0.0016
3830.00,0.0015
3829.00,0.0015
3828.00,0.0015
3827.00,0.0014
3826.00,0.0014
3825.00,0.0015
3824.00,0.0016
3823.00,0.0017
3822.00,0.0017
3821.00,0.0015
3820.00,0.0015
3819.00,0.0015
3818.00,0.0016
3817.00,0.0015
3816.00,0.0014
3815.00,0.0013
3814.00,0.0014
3813.00,0.0014
3812.00,0.0015
3811.00,0.0014
3810.00,0.0014
3809.00,0.0014
3808.00,0.0015
3807.00,0.0016
3806.00,0.0016
3805.00,0.0016
3804.00,0.0016
3803.00,0.0016
3802.00,0.0015
3801.00,0.0014
3800.00,0.0014
3799.00,0.0015
3798.00,0.0015
3797.00,0.0015
3796.00,0.0014
3795.00,0.0014
3794.00,0.0014
3793.00,0.0014
3792.00,0.0014
3791.00,0.0014
3790.00,0.0014
3789.00,0.0014
3788.00,0.0014
3787.00,0.0014
3786.00,0.0014
3785.00,0.0013
3784.00,0.0013
3783.00,0.0013
3782.00,0.0014
3781.00,0.0013
3780.00,0.0013
3779.00,0.0013
3778.00,0.0014
3777.00,0.0014
3776.00,0.0015
3775.00,0.0015
3774.00,0.0015
3773.00,0.0015
3772.00,0.0016
3771.00,0.0016
3770.00,0.0016
3769.00,0.0016
3768.00,0.0016
3767.00,0.0017
3766.00,0.0017
3765.00,0.0017
3764.00,0.0017
3763.00,0.0017
3762.00,0.0017
3761.00,0.0017
3760.00,0.0017
3759.00,0.0017
3758.00,0.0017
3757.00,0.0017
3756.00,0.0017
3755.00,0.0017
3754.00,0.0019
3753.00,0.0021
3752.00,0.0023
3751.00,0.0025
3750.00,0.0026
3749.00,0.0026
3748.00,0.0024
3747.00,0.0023
3746.00,0.0022
3745.00,0.0022
3744.00,0.0021
3743.00,0.0021
3742.00,0.0022
3741.00,0.0023
3740.00,0.0023
3739.00,0.0023
3738.00,0.0024
3737.00,0.0024
3736.00,0.0023
3735.00,0.0022
3734.00,0.0022
3733.00,0.0022
3732.00,0.0022
3731.00,0.0021
3730.00,0.0021
3729.00,0.0021
3728.00,0.0021
3727.00,0.0022
3726.00,0.0021
3725.00,0.0020
3724.00,0.0020
3723.00,0.0019
3722.00,0.0018
3721.00,0.0017
3720.00,0.0016
3719.00,0.0016
3718.00,0.0016
3717.00,0.0017
3716.00,0.0018
3715.00,0.0019
3714.00,0.0019
3713.00,0.0019
3712.00,0.0018
3711.00,0.0017
3710.00,0.0017
3709.00,0.0018
3708.00,0.0018
3707.00,0.0018
3706.00,0.0017
3705.00,0.0016
3704.00,0.0015
3703.00,0.0014
3702.00,0.0014
3701.00,0.0014
3700.00,0.0015
3699.00,0.0016
3698.00,0.0017
3697.00,0.0017
3696.00,0.0016
3695.00,0.0016
3694.00,0.0016
3693.00,0.0016
3692.00,0.0016
3691.00,0.0016
3690.00,0.0017
3689.00,0.0018
3688.00,0.0019
3687.00,0.0018
3686.00,0.0018
3685.00,0.0018
3684.00,0.0018
3683.00,0.0018
3682.00,0.0017
3681.00,0.0017
3680.00,0.0016
3679.00,0.0016
3678.00,0.0016
3677.00,0.0017
3676.00,0.0017
3675.00,0.0017
3674.00,0.0019
3673.00,0.0020
3672.00,0.0021
3671.00,0.0020
3670.00,0.0018
3669.00,0.0017
3668.00,0.0017
3667.00,0.0017
3666.00,0.0017
3665.00,0.0017
3664.00,0.0016
3663.00,0.0016
3662.00,0.0016
3661.00,0.0015
3660.00,0.0015
3659.00,0.0016
3658.00,0.0017
3657.00,0.0018
3656.00,0.0019
3655.00,0.0019
3654.00,0.0019
3653.00,0.0019
3652.00,0.0019
3651.00,0.0020
3650.00,0.0021
3649.00,0.0021
3648.00,0.0020
3647.00,0.0020
3646.00,0.0020
3645.00,0.0019
3644.00,0.0019
3643.00,0.0018
3642.00,0.0017
3641.00,0.0017
3640.00,0.0016
3639.00,0.0016
3638.00,0.0016
3637.00,0.0016
3636.00,0.0017
3635.00,0.0017
3634.00,0.0018
3633.00,0.0020
3632.00,0.0021
3631.00,0.0024
3630.00,0.0025
3629.00,0.0024
3628.00,0.0023
3627.00,0.0022
3626.00,0.0022
3625.00,0.0021
3624.00,0.0021
3623.00,0.0020
3622.00,0.0021
3621.00,0.0021
3620.00,0.0022
3619.00,0.0022
3618.00,0.0022
3617.00,0.0022
3616.00,0.0022
3615.00,0.0022
3614.00,0.0023
3613.00,0.0023
3612.00,0.0024
3611.00,0.0026
3610.00,0.0026
3609.00,0.0024
3608.00,0.0022
3607.00,0.0021
3606.00,0.0020
3605.00,0.0020
3604.00,0.0020
3603.00,0.0019
3602.00,0.0019
3601.00,0.0018
3600.00,0.0018
3599.00,0.0018
3598.00,0.0017
3597.00,0.0017
3596.00,0.0018
3595.00,0.0018
3594.00,0.0019
3593.00,0.0020
3592.00,0.0021
3591.00,0.0022
3590.00,0.0022
3589.00,0.0022
3588.00,0.0021
3587.00,0.0020
3586.00,0.0019
3585.00,0.0019
3584.00,0.0019
3583.00,0.0019
3582.00,0.0018
3581.00,0.0017
3580.00,0.0017
3579.00,0.0017
3578.00,0.0017
3577.00,0.0017
3576.00,0.0017
3575.00,0.0017
3574.00,0.0017
3573.00,0.0017
3572.00,0.0017
3571.00,0.0018
3570.00,0.0019
3569.00,0.0019
3568.00,0.0020
3567.00,0.0020
3566.00,0.0020
3565.00,0.0020
3564.00,0.0020
3563.00,0.0020
3562.00,0.0019
3561.00,0.0018
3560.00,0.0018
3559.00,0.0017
3558.00,0.0017
3557.00,0.0018
3556.00,0.0018
3555.00,0.0018
3554.00,0.0019
3553.00,0.0019
3552.00,0.0019
3551.00,0.0019
3550.00,0.0019
3549.00,0.0020
3548.00,0.0020
3547.00,0.0020
3546.00,0.0020
3545.00,0.0020
3544.00,0.0020
3543.00,0.0019
3542.00,0.0018
3541.00,0.0018
3540.00,0.0018
3539.00,0.0018
3538.00,0.0018
3537.00,0.0018
3536.00,0.0018
3535.00,0.0018
3534.00,0.0018
3533.00,0.0018
3532.00,0.0018
3531.00,0.0018
3530.00,0.0018
3529.00,0.0018
3528.00,0.0018
3527.00,0.0019
3526.00,0.0020
3525.00,0.0020
3524.00,0.0021
3523.00,0.0020
3522.00,0.0019
3521.00,0.0018
3520.00,0.0018
3519.00,0.0017
3518.00,0.0017
3517.00,0.0017
3516.00,0.0018
3515.00,0.0018
3514.00,0.0018
3513.00,0.0017
3512.00,0.0017
3511.00,0.0016
3510.00,0.0017
3509.00,0.0017
3508.00,0.0018
3507.00,0.0018
3506.00,0.0018
3505.00,0.0018
3504.00,0.0018
3503.00,0.0018
3502.00,0.0018
3501.00,0.0018
3500.00,0.0018
3499.00,0.0018
3498.00,0.0018
3497.00,0.0018
3496.00,0.0018
3495.00,0.0018
3494.00,0.0018
3493.00,0.0017
3492.00,0.0018
3491.00,0.0018
3490.00,0.0018
3489.00,0.0018
3488.00,0.0018
3487.00,0.0018
3486.00,0.0018
3485.00,0.0018
3484.00,0.0017
3483.00,0.0017
3482.00,0.0016
3481.00,0.0016
3480.00,0.0017
3479.00,0.0017
3478.00,0.0018
3477.00,0.0018
3476.00,0.0017
3475.00,0.0017
3474.00,0.0017
3473.00,0.0016
3472.00,0.0016
3471.00,0.0016
3470.00,0.0016
3469.00,0.0017
3468.00,0.0017
3467.00,0.0017
3466.00,0.0018
3465.00,0.0018
3464.00,0.0018
3463.00,0.0018
3462.00,0.0018
3461.00,0.0018
3460.00,0.0017
3459.00,0.0017
3458.00,0.0016
3457.00,0.0016
3456.00,0.0016
3455.00,0.0016
3454.00,0.0016
3453.00,0.0016
3452.00,0.0017
3451.00,0.0017
3450.00,0.0018
3449.00,0.0018
3448.00,0.0018
3447.00,0.0018
3446.00,0.0018
3445.00,0.0018
3444.00,0.0018
3443.00,0.0018
3442.00,0.0018
3441.00,0.0018
3440.00,0.0018
3439.00,0.0018
3438.00,0.0017
3437.00,0.0017
3436.00,0.0018
3435.00,0.0018
3434.00,0.0018
3433.00,0.0018
3432.00,0.0018
3431.00,0.0018
3430.00,0.0018
3429.00,0.0018
3428.00,0.0018
3427.00,0.0018
3426.00,0.0018
3425.00,0.0018
3424.00,0.0018
3423.00,0.0018
3422.00,0.0019
3421.00,0.0019
3420.00,0.0019
3419.00,0.0018
3418.00,0.0018
3417.00,0.0017
3416.00,0.0017
3415.00,0.0017
3414.00,0.0017
3413.00,0.0017
3412.00,0.0017
3411.00,0.0017
3410.00,0.0017
3409.00,0.0016
3408.00,0.0016
3407.00,0.0016
3406.00,0.0017
3405.00,0.0017
3404.00,0.0017
3403.00,0.0017
3402.00,0.0018
3401.00,0.0018
3400.00,0.0018
3399.00,0.0017
3398.00,0.0017
3397.00,0.0017
3396.00,0.0017
3395.00,0.0018
3394.00,0.0018
3393.00,0.0018
3392.00,0.0018
3391.00,0.0018
3390.00,0.0018
3389.00,0.0018
3388.00,0.0018
3387.00,0.0018
3386.00,0.0018
3385.00,0.0018
3384.00,0.0018
3383.00,0.0017
3382.00,0.0017
3381.00,0.0017
3380.00,0.0017
3379.00,0.0018
3378.00,0.0018
3377.00,0.0018
3376.00,0.0018
3375.00,0.0018
3374.00,0.0018
3373.00,0.0018
3372.00,0.0018
3371.00,0.0017
3370.00,0.0017
3369.00,0.0017
3368.00,0.0017
3367.00,0.0017
3366.00,0.0017
3365.00,0.0017
3364.00,0.0018
3363.00,0.0018
3362.00,0.0018
3361.00,0.0018
3360.00,0.0018
3359.00,0.0018
3358.00,0.0018
3357.00,0.0018
3356.00,0.0018
3355.00,0.0018
3354.00,0.0018
3353.00,0.0018
3352.00,0.0018
3351.00,0.0019
3350.00,0.0019
3349.00,0.0019
3348.00,0.0019
3347.00,0.0019
3346.00,0.0018
3345.00,0.0018
3344.00,0.0018
3343.00,0.0018
3342.00,0.0018
3341.00,0.0019
3340.00,0.0019
3339.00,0.0019
3338.00,0.0019
3337.00,0.0019
3336.00,0.0018
3335.00,0.0018
3334.00,0.0018
3333.00,0.0018
3332.00,0.0018
3331.00,0.0018
3330.00,0.0018
3329.00,0.0019
3328.00,0.0019
3327.00,0.0019
3326.00,0.0019
3325.00,0.0019
3324.00,0.0019
3323.00,0.0018
3322.00,0.0018
3321.00,0.0018
3320.00,0.0018
3319.00,0.0018
3318.00,0.0019
3317.00,0.0019
3316.00,0.0019
3315.00,0.0019
3314.00,0.0019
3313.00,0.0019
3312.00,0.0019
3311.00,0.0019
3310.00,0.0019
3309.00,0.0018
3308.00,0.0018
3307.00,0.0018
3306.00,0.0019
3305.00,0.0019
3304.00,0.0019
3303.00,0.0019
3302.00,0.0020
3301.00,0.0020
3300.00,0.0020
3299.00,0.0020
3298.00,0.0020
3297.00,0.0020
3296.00,0.0020
3295.00,0.0019
3294.00,0.0019
3293.00,0.0019
3292.00,0.0020
3291.00,0.0019
3290.00,0.0019
3289.00,0.0019
3288.00,0.0019
3287.00,0.0019
3286.00,0.0019
3285.00,0.0019
3284.00,0.0019
3283.00,0.0018
3282.00,0.0019
3281.00,0.0019
3280.00,0.0019
3279.00,0.0020
3278.00,0.0020
3277.00,0.0020
3276.00,0.0020
3275.00,0.0020
3274.00,0.0020
3273.00,0.0020
3272.00,0.0020
3271.00,0.0020
3270.00,0.0020
3269.00,0.0020
3268.00,0.0020
3267.00,0.0020
3266.00,0.0020
3265.00,0.0020
3264.00,0.0019
3263.00,0.0019
3262.00,0.0018
3261.00,0.0019
3260.00,0.0019
3259.00,0.0019
3258.00,0.0019
3257.00,0.0019
3256.00,0.0019
3255.00,0.0019
3254.00,0.0019
3253.00,0.0019
3252.00,0.0019
3251.00,0.0019
3250.00,0.0020
3249.00,0.0020
3248.00,0.0020
3247.00,0.0020
3246.00,0.0021
3245.00,0.0021
3244.00,0.0021
3243.00,0.0021
3242.00,0.0021
3241.00,0.0021
3240.00,0.0021
3239.00,0.0021
3238.00,0.0021
3237.00,0.0021
3236.00,0.0021
3235.00,0.0020
3234.00,0.0020
3233.00,0.0020
3232.00,0.0020
3231.00,0.0020
3230.00,0.0021
3229.00,0.0021
3228.00,0.0020
3227.00,0.0020
3226.00,0.0020
3225.00,0.0020
3224.00,0.0020
3223.00,0.0020
3222.00,0.0020
3221.00,0.0020
3220.00,0.0020
3219.00,0.0020
3218.00,0.0020
3217.00,0.0019
3216.00,0.0019
3215.00,0.0019
3214.00,0.0019
3213.00,0.0020
3212.00,0.0020
3211.00,0.0020
3210.00,0.0020
3209.00,0.0020
3208.00,0.0020
3207.00,0.0020
3206.00,0.0020
3205.00,0.0020
3204.00,0.0020
3203.00,0.0020
3202.00,0.0020
3201.00,0.0019
3200.00,0.0020
3199.00,0.0020
3198.00,0.0020
3197.00,0.0019
3196.00,0.0019
3195.00,0.0019
3194.00,0.0019
3193.00,0.0020
3192.00,0.0020
3191.00,0.0020
3190.00,0.0020
3189.00,0.0020
3188.00,0.0020
3187.00,0.0021
3186.00,0.0021
3185.00,0.0021
3184.00,0.0020
3183.00,0.0019
3182.00,0.0019
3181.00,0.0019
3180.00,0.0019
3179.00,0.0019
3178.00,0.0019
3177.00,0.0019
3176.00,0.0019
3175.00,0.0019
3174.00,0.0019
3173.00,0.0019
3172.00,0.0020
3171.00,0.0020
3170.00,0.0020
3169.00,0.0020
3168.00,0.0020
3167.00,0.0020
3166.00,0.0019
3165.00,0.0019
3164.00,0.0020
3163.00,0.0020
3162.00,0.0020
3161.00,0.0020
3160.00,0.0020
3159.00,0.0020
3158.00,0.0019
3157.00,0.0019
3156.00,0.0019
3155.00,0.0019
3154.00,0.0019
3153.00,0.0019
3152.00,0.0019
3151.00,0.0019
3150.00,0.0019
3149.00,0.0019
3148.00,0.0019
3147.00,0.0019
3146.00,0.0019
3145.00,0.0019
3144.00,0.0019
3143.00,0.0019
3142.00,0.0019
3141.00,0.0019
3140.00,0.0019
3139.00,0.0019
3138.00,0.0020
3137.00,0.0020
3136.00,0.0020
3135.00,0.0019
3134.00,0.0019
3133.00,0.0019
3132.00,0.0019
3131.00,0.0020
3130.00,0.0020
3129.00,0.0019
3128.00,0.0019
3127.00,0.0019
3126.00,0.0019
3125.00,0.0019
3124.00,0.0019
3123.00,0.0019
3122.00,0.0019
3121.00,0.0019
3120.00,0.0019
3119.00,0.0020
3118.00,0.0020
3117.00,0.0020
3116.00,0.0019
3115.00,0.0019
3114.00,0.0019
3113.00,0.0019
3112.00,0.0019
3111.00,0.0019
3110.00,0.0018
3109.00,0.0018
3108.00,0.0018
3107.00,0.0018
3106.00,0.0018
3105.00,0.0018
3104.00,0.0019
3103.00,0.0019
3102.00,0.0019
3101.00,0.0019
3100.00,0.0019
3099.00,0.0018
3098.00,0.0018
3097.00,0.0018
3096.00,0.0018
3095.00,0.0018
3094.00,0.0018
3093.00,0.0018
3092.00,0.0019
3091.00,0.0019
3090.00,0.0019
3089.00,0.0019
3088.00,0.0019
3087.00,0.0019
3086.00,0.0019
3085.00,0.0019
3084.00,0.0019
3083.00,0.0019
3082.00,0.0018
3081.00,0.0018
3080.00,0.0018
3079.00,0.0019
3078.00,0.0019
3077.00,0.0018
3076.00,0.0018
3075.00,0.0018
3074.00,0.0018
3073.00,0.0018
3072.00,0.0018
3071.00,0.0018
3070.00,0.0018
3069.00,0.0018
3068.00,0.0018
3067.00,0.0018
3066.00,0.0018
3065.00,0.0018
3064.00,0.0019
3063.00,0.0018
3062.00,0.0018
3061.00,0.0018
3060.00,0.0018
3059.00,0.0018
3058.00,0.0018
3057.00,0.0018
3056.00,0.0018
3055.00,0.0017
3054.00,0.0017
3053.00,0.0017
3052.00,0.0018
3051.00,0.0018
3050.00,0.0017
3049.00,0.0017
3048.00,0.0017
3047.00,0.0017
3046.00,0.0017
3045.00,0.0018
3044.00,0.0018
3043.00,0.0018
3042.00,0.0018
3041.00,0.0018
3040.00,0.0018
3039.00,0.0018
3038.00,0.0017
3037.00,0.0017
3036.00,0.0017
3035.00,0.0017
3034.00,0.0017
3033.00,0.0017
3032.00,0.0016
3031.00,0.0016
3030.00,0.0016
3029.00,0.0016
3028.00,0.0016
3027.00,0.0016
3026.00,0.0016
3025.00,0.0016
3024.00,0.0016
3023.00,0.0016
3022.00,0.0016
3021.00,0.0016
3020.00,0.0016
3019.00,0.0016
3018.00,0.0016
3017.00,0.0016
3016.00,0.0016
3015.00,0.0016
3014.00,0.0016
3013.00,0.0016
3012.00,0.0015
3011.00,0.0015
3010.00,0.0014
3009.00,0.0014
3008.00,0.0013
3007.00,0.0013
3006.00,0.0013
3005.00,0.0012
3004.00,0.0012
3003.00,0.0012
3002.00,0.0012
3001.00,0.0012
3000.00,0.0012
2999.00,0.0011
2998.00,0.0011
2997.00,0.0011
2996.00,0.0010
2995.00,0.0010
2994.00,0.0010
2993.00,0.0010
2992.00,0.0010
2991.00,0.0010
2990.00,0.0009
2989.00,0.0009
2988.00,0.0009
2987.00,0.0008
2986.00,0.0007
2985.00,0.0006
2984.00,0.0005
2983.00,0.0004
2982.00,0.0004
2981.00,0.0003
2980.00,0.0004
2979.00,0.0004
2978.00,0.0005
2977.00,0.0005
2976.00,0.0006
2975.00,0.0006
2974.00,0.0005
2973.00,0.0005
2972.00,0.0004
2971.00,0.0004
2970.00,0.0004
2969.00,0.0004
2968.00,0.0004
2967.00,0.0004
2966.00,0.0004
2965.00,0.0004
2964.00,0.0003
2963.00,0.0003
2962.00,0.0003
2961.00,0.0002
2960.00,0.0002
2959.00,0.0002
2958.00,0.0002
2957.00,0.0002
2956.00,0.0002
2955.00,0.0002
2954.00,0.0003
2953.00,0.0003
2952.00,0.0003
2951.00,0.0003
2950.00,0.0004
2949.00,0.0003
2948.00,0.0003
2947.00,0.0003
2946.00,0.0003
2945.00,0.0003
2944.00,0.0003
2943.00,0.0003
2942.00,0.0003
2941.00,0.0002
2940.00,0.0002
2939.00,0.0001
2938.00,0.0000
2937.00,-0.0001
2936.00,-0.0002
2935.00,-0.0002
2934.00,-0.0003
2933.00,-0.0004
2932.00,-0.0004
2931.00,-0.0005
2930.00,-0.0006
2929.00,-0.0007
2928.00,-0.0008
2927.00,-0.0009
2926.00,-0.0010
2925.00,-0.0010
2924.00,-0.0010
2923.00,-0.0010
2922.00,-0.0010
2921.00,-0.0009
2920.00,-0.0009
2919.00,-0.0009
2918.00,-0.0009
2917.00,-0.0009
2916.00,-0.0009
2915.00,-0.0007
2914.00,-0.0006
2913.00,-0.0004
2912.00,-0.0003
2911.00,-0.0002
2910.00,-0.0001
2909.00,-0.0001
2908.00,-0.0000
2907.00,0.0001
2906.00,0.0001
2905.00,0.0001
2904.00,0.0001
2903.00,0.0002
2902.00,0.0002
2901.00,0.0003
2900.00,0.0003
2899.00,0.0003
2898.00,0.0003
2897.00,0.0003
2896.00,0.0003
2895.00,0.0003
2894.00,0.0003
2893.00,0.0003
2892.00,0.0004
2891.00,0.0004
2890.00,0.0004
2889.00,0.0004
2888.00,0.0005
2887.00,0.0005
2886.00,0.0005
2885.00,0.0005
2884.00,0.0005
2883.00,0.0005
2882.00,0.0005
2881.00,0.0005
2880.00,0.0005
2879.00,0.0006
2878.00,0.0006
2877.00,0.0006
2876.00,0.0006
2875.00,0.0006
2874.00,0.0006
2873.00,0.0005
2872.00,0.0005
2871.00,0.0005
2870.00,0.0004
2869.00,0.0004
2868.00,0.0004
2867.00,0.0004
2866.00,0.0004
2865.00,0.0004
2864.00,0.0003
2863.00,0.0003
2862.00,0.0003
2861.00,0.0003
2860.00,0.0002
2859.00,0.0001
2858.00,0.0001
2857.00,-0.0000
2856.00,-0.0001
2855.00,-0.0001
2854.00,-0.0001
2853.00,-0.0001
2852.00,-0.0000
2851.00,0.0000
2850.00,0.0000
2849.00,0.0001
2848.00,0.0002
2847.00,0.0003
2846.00,0.0003
2845.00,0.0004
2844.00,0.0005
2843.00,0.0006
2842.00,0.0006
2841.00,0.0007
2840.00,0.0007
2839.00,0.0008
2838.00,0.0008
2837.00,0.0008
2836.00,0.0008
2835.00,0.0008
2834.00,0.0008
2833.00,0.0008
2832.00,0.0008
2831.00,0.0008
2830.00,0.0009
2829.00,0.0009
2828.00,0.0009
2827.00,0.0009
2826.00,0.0010
2825.00,0.0010
2824.00,0.0010
2823.00,0.0010
2822.00,0.0010
2821.00,0.0010
2820.00,0.0010
2819.00,0.0010
2818.00,0.0010
2817.00,0.0010
2816.00,0.0010
2815.00,0.0010
2814.00,0.0010
2813.00,0.0010
2812.00,0.0011
2811.00,0.0011
2810.00,0.0011
2809.00,0.0010
2808.00,0.0010
2807.00,0.0010
2806.00,0.0010
2805.00,0.0010
2804.00,0.0010
2803.00,0.0010
2802.00,0.0010
2801.00,0.0010
2800.00,0.0010
2799.00,0.0010
2798.00,0.0010
2797.00,0.0010
2796.00,0.0010
2795.00,0.0010
2794.00,0.0010
2793.00,0.0010
2792.00,0.0010
2791.00,0.0010
2790.00,0.0010
2789.00,0.0010
2788.00,0.0010
2787.00,0.0010
2786.00,0.0010
2785.00,0.0010
2784.00,0.0009
2783.00,0.0009
2782.00,0.0009
2781.00,0.0009
2780.00,0.0009
2779.00,0.0009
2778.00,0.0010
2777.00,0.0010
2776.00,0.0010
2775.00,0.0010
2774.00,0.0010
2773.00,0.0010
2772.00,0.0009
2771.00,0.0009
2770.00,0.0010
2769.00,0.0010
2768.00,0.0010
2767.00,0.0010
2766.00,0.0010
2765.00,0.0010
2764.00,0.0010
2763.00,0.0010
2762.00,0.0010
2761.00,0.0010
2760.00,0.0010
2759.00,0.0010
2758.00,0.0010
2757.00,0.0010
2756.00,0.0010
2755.00,0.0010
2754.00,0.0010
2753.00,0.0010
2752.00,0.0010
2751.00,0.0010
2750.00,0.0010
2749.00,0.0010
2748.00,0.0010
2747.00,0.0009
2746.00,0.0009
2745.00,0.0009
2744.00,0.0009
2743.00,0.0009
2742.00,0.0009
2741.00,0.0009
2740.00,0.0009
2739.00,0.0009
2738.00,0.0009
2737.00,0.0009
2736.00,0.0009
2735.00,0.0009
2734.00,0.0009
2733.00,0.0009
2732.00,0.0009
2731.00,0.0009
2730.00,0.0009
2729.00,0.0009
2728.00,0.0009
2727.00,0.0009
2726.00,0.0009
2725.00,0.0009
2724.00,0.0010
2723.00,0.0010
2722.00,0.0010
2721.00,0.0009
2720.00,0.0010
2719.00,0.0010
2718.00,0.0010
2717.00,0.0010
2716.00,0.0010
2715.00,0.0010
2714.00,0.0010
2713.00,0.0010
2712.00,0.0010
2711.00,0.0009
2710.00,0.0009
2709.00,0.0009
2708.00,0.0009
2707.00,0.0009
2706.00,0.0009
2705.00,0.0009
2704.00,0.0009
2703.00,0.0009
2702.00,0.0009
2701.00,0.0009
2700.00,0.0009
2699.00,0.0009
2698.00,0.0009
2697.00,0.0009
2696.00,0.0010
2695.00,0.0010
2694.00,0.0009
2693.00,0.0009
2692.00,0.0009
2691.00,0.0009
2690.00,0.0009
2689.00,0.0009
2688.00,0.0009
2687.00,0.0009
2686.00,0.0009
2685.00,0.0009
2684.00,0.0009
2683.00,0.0009
2682.00,0.0009
2681.00,0.0009
2680.00,0.0009
2679.00,0.0009
2678.00,0.0009
2677.00,0.0009
2676.00,0.0009
2675.00,0.0009
2674.00,0.0010
2673.00,0.0010
2672.00,0.0010
2671.00,0.0010
2670.00,0.0009
2669.00,0.0009
2668.00,0.0010
2667.00,0.0010
2666.00,0.0010
2665.00,0.0010
2664.00,0.0010
2663.00,0.0011
2662.00,0.0011
2661.00,0.0011
2660.00,0.0011
2659.00,0.0011
2658.00,0.0011
2657.00,0.0011
2656.00,0.0012
2655.00,0.0012
2654.00,0.0012
2653.00,0.0012
2652.00,0.0012
2651.00,0.0012
2650.00,0.0011
2649.00,0.0011
2648.00,0.0011
2647.00,0.0011
2646.00,0.0011
2645.00,0.0011
2644.00,0.0011
2643.00,0.0011
2642.00,0.0011
2641.00,0.0011
2640.00,0.0011
2639.00,0.0011
2638.00,0.0011
2637.00,0.0011
2636.00,0.0011
2635.00,0.0011
2634.00,0.0011
2633.00,0.0011
2632.00,0.0011
2631.00,0.0011
2630.00,0.0011
2629.00,0.0012
2628.00,0.0012
2627.00,0.0012
2626.00,0.0012
2625.00,0.0012
2624.00,0.0012
2623.00,0.0012
2622.00,0.0012
2621.00,0.0012
2620.00,0.0012
2619.00,0.0011
2618.00,0.0011
2617.00,0.0011
2616.00,0.0011
2615.00,0.0012
2614.00,0.0012
2613.00,0.0012
2612.00,0.0012
2611.00,0.0012
2610.00,0.0012
2609.00,0.0012
2608.00,0.0012
2607.00,0.0012
2606.00,0.0013
2605.00,0.0012
2604.00,0.0012
2603.00,0.0012
2602.00,0.0011
2601.00,0.0011
2600.00,0.0011
2599.00,0.0011
2598.00,0.0011
2597.00,0.0011
2596.00,0.0011
2595.00,0.0011
2594.00,0.0011
2593.00,0.0011
2592.00,0.0011
2591.00,0.0011
2590.00,0.0011
2589.00,0.0011
2588.00,0.0011
2587.00,0.0011
2586.00,0.0011
2585.00,0.0012
2584.00,0.0012
2583.00,0.0012
2582.00,0.0012
2581.00,0.0012
2580.00,0.0012
2579.00,0.0012
2578.00,0.0012
2577.00,0.0012
2576.00,0.0012
2575.00,0.0012
2574.00,0.0012
2573.00,0.0012
2572.00,0.0012
2571.00,0.0011
2570.00,0.0011
2569.00,0.0011
2568.00,0.0012
2567.00,0.0012
2566.00,0.0012
2565.00,0.0013
2564.00,0.0012
2563.00,0.0012
2562.00,0.0011
2561.00,0.0011
2560.00,0.0011
2559.00,0.0011
2558.00,0.0011
2557.00,0.0012
2556.00,0.0012
2555.00,0.0012
2554.00,0.0012
2553.00,0.0012
2552.00,0.0012
2551.00,0.0012
2550.00,0.0012
2549.00,0.0012
2548.00,0.0011
2547.00,0.0011
2546.00,0.0012
2545.00,0.0011
2544.00,0.0011
2543.00,0.0011
2542.00,0.0011
2541.00,0.0011
2540.00,0.0011
2539.00,0.0011
2538.00,0.0011
2537.00,0.0011
2536.00,0.0011
2535.00,0.0011
2534.00,0.0011
2533.00,0.0011
2532.00,0.0011
2531.00,0.0011
2530.00,0.0011
2529.00,0.0011
2528.00,0.0011
2527.00,0.0011
2526.00,0.0012
2525.00,0.0012
2524.00,0.0012
2523.00,0.0012
2522.00,0.0012
2521.00,0.0012
2520.00,0.0012
2519.00,0.0011
2518.00,0.0011
2517.00,0.0011
2516.00,0.0011
2515.00,0.0011
2514.00,0.0012
2513.00,0.0012
2512.00,0.0012
2511.00,0.0012
2510.00,0.0011
2509.00,0.0011
2508.00,0.0011
2507.00,0.0011
2506.00,0.0011
2505.00,0.0011
2504.00,0.0012
2503.00,0.0012
2502.00,0.0011
2501.00,0.0011
2500.00,0.0011
2499.00,0.0011
2498.00,0.0011
2497.00,0.0011
2496.00,0.0012
2495.00,0.0012
2494.00,0.0012
2493.00,0.0012
2492.00,0.0012
2491.00,0.0012
2490.00,0.0012
2489.00,0.0011
2488.00,0.0011
2487.00,0.0011
2486.00,0.0011
2485.00,0.0011
2484.00,0.0011
2483.00,0.0011
2482.00,0.0011
2481.00,0.0012
2480.00,0.0012
2479.00,0.0012
2478.00,0.0012
2477.00,0.0012
2476.00,0.0012
2475.00,0.0012
2474.00,0.0012
2473.00,0.0012
2472.00,0.0012
2471.00,0.0012
2470.00,0.0012
2469.00,0.0012
2468.00,0.0012
2467.00,0.0012
2466.00,0.0012
2465.00,0.0012
2464.00,0.0012
2463.00,0.0012
2462.00,0.0012
2461.00,0.0012
2460.00,0.0012
2459.00,0.0012
2458.00,0.0012
2457.00,0.0012
2456.00,0.0013
2455.00,0.0013
2454.00,0.0013
2453.00,0.0013
2452.00,0.0013
2451.00,0.0013
2450.00,0.0013
2449.00,0.0013
2448.00,0.0013
2447.00,0.0013
2446.00,0.0013
2445.00,0.0013
2444.00,0.0013
2443.00,0.0013
2442.00,0.0012
2441.00,0.0012
2440.00,0.0012
2439.00,0.0011
2438.00,0.0011
2437.00,0.0011
2436.00,0.0011
2435.00,0.0011
2434.00,0.0011
2433.00,0.0011
2432.00,0.0012
2431.00,0.0012
2430.00,0.0011
2429.00,0.0011
2428.00,0.0011
2427.00,0.0011
2426.00,0.0012
2425.00,0.0012
2424.00,0.0012
2423.00,0.0012
2422.00,0.0011
2421.00,0.0011
2420.00,0.0011
2419.00,0.0011
2418.00,0.0011
2417.00,0.0011
2416.00,0.0011
2415.00,0.0011
2414.00,0.0011
2413.00,0.0011
2412.00,0.0011
2411.00,0.0011
2410.00,0.0011
2409.00,0.0011
2408.00,0.0011
2407.00,0.0011
2406.00,0.0011
2405.00,0.0011
2404.00,0.0011
2403.00,0.0011
2402.00,0.0011
2401.00,0.0011
2400.00,0.0011
2399.00,0.0011
2398.00,0.0011
2397.00,0.0011
2396.00,0.0011
2395.00,0.0011
2394.00,0.0011
2393.00,0.0010
2392.00,0.0010
2391.00,0.0010
2390.00,0.0010
2389.00,0.0010
2388.00,0.0010
2387.00,0.0010
2386.00,0.0010
2385.00,0.0010
2384.00,0.0010
2383.00,0.0010
2382.00,0.0010
2381.00,0.0010
2380.00,0.0009
2379.00,0.0009
2378.00,0.0009
2377.00,0.0009
2376.00,0.0010
2375.00,0.0010
2374.00,0.0010
2373.00,0.0010
2372.00,0.0009
2371.00,0.0010
2370.00,0.0011
2369.00,0.0011
2368.00,0.0011
2367.00,0.0011
2366.00,0.0010
2365.00,0.0010
2364.00,0.0010
2363.00,0.0010
2362.00,0.0011
2361.00,0.0012
2360.00,0.0012
2359.00,0.0012
2358.00,0.0011
2357.00,0.0011
2356.00,0.0012
2355.00,0.0013
2354.00,0.0012
2353.00,0.0012
2352.00,0.0011
2351.00,0.0011
2350.00,0.0012
2349.00,0.0011
2348.00,0.0010
2347.00,0.0008
2346.00,0.0008
2345.00,0.0010
2344.00,0.0012
2343.00,0.0013
2342.00,0.0013
2341.00,0.0014
2340.00,0.0014
2339.00,0.0013
2338.00,0.0012
2337.00,0.0010
2336.00,0.0010
2335.00,0.0011
2334.00,0.0012
2333.00,0.0013
2332.00,0.0014
2331.00,0.0015
2330.00,0.0015
2329.00,0.0016
2328.00,0.0016
2327.00,0.0017
2326.00,0.0018
2325.00,0.0019
2324.00,0.0019
2323.00,0.0018
2322.00,0.0017
2321.00,0.0017
2320.00,0.0017
2319.00,0.0017
2318.00,0.0017
2317.00,0.0017
2316.00,0.0017
2315.00,0.0016
2314.00,0.0015
2313.00,0.0015
2312.00,0.0015
2311.00,0.0016
2310.00,0.0017
2309.00,0.0017
2308.00,0.0017
2307.00,0.0017
2306.00,0.0016
2305.00,0.0016
2304.00,0.0015
2303.00,0.0015
2302.00,0.0014
2301.00,0.0014
2300.00,0.0014
2299.00,0.0013
2298.00,0.0013
2297.00,0.0013
2296.00,0.0013
2295.00,0.0013
2294.00,0.0014
2293.00,0.0014
2292.00,0.0015
2291.00,0.0015
2290.00,0.0016
2289.00,0.0016
2288.00,0.0016
2287.00,0.0016
2286.00,0.0016
2285.00,0.0015
2284.00,0.0015
2283.00,0.0014
2282.00,0.0014
2281.00,0.0013
2280.00,0.0013
2279.00,0.0012
2278.00,0.0011
2277.00,0.0011
2276.00,0.0011
2275.00,0.0011
2274.00,0.0011
2273.00,0.0011
2272.00,0.0012
2271.00,0.0012
2270.00,0.0013
2269.00,0.0013
2268.00,0.0013
2267.00,0.0013
2266.00,0.0013
2265.00,0.0013
2264.00,0.0013
2263.00,0.0013
2262.00,0.0014
2261.00,0.0014
2260.00,0.0014
2259.00,0.0014
2258.00,0.0014
2257.00,0.0013
2256.00,0.0013
2255.00,0.0012
2254.00,0.0012
2253.00,0.0012
2252.00,0.0012
2251.00,0.0012
2250.00,0.0012
2249.00,0.0013
2248.00,0.0013
2247.00,0.0014
2246.00,0.0013
2245.00,0.0012
2244.00,0.0011
2243.00,0.0011
2242.00,0.0011
2241.00,0.0012
2240.00,0.0013
2239.00,0.0014
2238.00,0.0015
2237.00,0.0014
2236.00,0.0013
2235.00,0.0012
2234.00,0.0011
2233.00,0.0012
2232.00,0.0012
2231.00,0.0013
2230.00,0.0013
2229.00,0.0013
2228.00,0.0013
2227.00,0.0012
2226.00,0.0012
2225.00,0.0012
2224.00,0.0012
2223.00,0.0012
2222.00,0.0013
2221.00,0.0014
2220.00,0.0014
2219.00,0.0015
2218.00,0.0015
2217.00,0.0015
2216.00,0.0015
2215.00,0.0015
2214.00,0.0016
2213.00,0.0016
2212.00,0.0016
2211.00,0.0014
2210.00,0.0013
2209.00,0.0012
2208.00,0.0011
2207.00,0.0011
2206.00,0.0011
2205.00,0.0012
2204.00,0.0012
2203.00,0.0012
2202.00,0.0013
2201.00,0.0014
2200.00,0.0015
2199.00,0.0016
2198.00,0.0016
2197.00,0.0016
2196.00,0.0015
2195.00,0.0014
2194.00,0.0014
2193.00,0.0014
2192.00,0.0014
2191.00,0.0012
2190.00,0.0011
2189.00,0.0011
2188.00,0.0012
2187.00,0.0014
2186.00,0.0016
2185.00,0.0016
2184.00,0.0015
2183.00,0.0013
2182.00,0.0012
2181.00,0.0011
2180.00,0.0012
2179.00,0.0011
2178.00,0.0011
2177.00,0.0010
2176.00,0.0009
2175.00,0.0009
2174.00,0.0011
2173.00,0.0013
2172.00,0.0015
2171.00,0.0018
2170.00,0.0020
2169.00,0.0020
2168.00,0.0019
2167.00,0.0017
2166.00,0.0016
2165.00,0.0015
2164.00,0.0016
2163.00,0.0017
2162.00,0.0017
2161.00,0.0015
2160.00,0.0012
2159.00,0.0009
2158.00,0.0008
2157.00,0.0008
2156.00,0.0009
2155.00,0.0009
2154.00,0.0009
2153.00,0.0009
2152.00,0.0009
2151.00,0.0008
2150.00,0.0008
2149.00,0.0008
2148.00,0.0008
2147.00,0.0009
2146.00,0.0010
2145.00,0.0010
2144.00,0.0011
2143.00,0.0011
2142.00,0.0011
2141.00,0.0011
2140.00,0.0011
2139.00,0.0011
2138.00,0.0010
2137.00,0.0009
2136.00,0.0007
2135.00,0.0006
2134.00,0.0006
2133.00,0.0006
2132.00,0.0007
2131.00,0.0007
2130.00,0.0008
2129.00,0.0008
2128.00,0.0008
2127.00,0.0008
2126.00,0.0009
2125.00,0.0010
2124.00,0.0010
2123.00,0.0010
2122.00,0.0010
2121.00,0.0009
2120.00,0.0010
2119.00,0.0010
2118.00,0.0011
2117.00,0.0012
2116.00,0.0012
2115.00,0.0012
2114.00,0.0012
2113.00,0.0012
2112.00,0.0012
2111.00,0.0013
2110.00,0.0013
2109.00,0.0012
2108.00,0.0012
2107.00,0.0012
2106.00,0.0013
2105.00,0.0013
2104.00,0.0013
2103.00,0.0012
2102.00,0.0012
2101.00,0.0012
2100.00,0.0011
2099.00,0.0011
2098.00,0.0011
2097.00,0.0011
2096.00,0.0011
2095.00,0.0011
2094.00,0.0011
2093.00,0.0011
2092.00,0.0011
2091.00,0.0011
2090.00,0.0011
2089.00,0.0012
2088.00,0.0012
2087.00,0.0012
2086.00,0.0012
2085.00,0.0013
2084.00,0.0013
2083.00,0.0013
2082.00,0.0013
2081.00,0.0012
2080.00,0.0011
2079.00,0.0011
2078.00,0.0011
2077.00,0.0012
2076.00,0.0013
2075.00,0.0012
2074.00,0.0012
2073.00,0.0011
2072.00,0.0011
2071.00,0.0011
2070.00,0.0011
2069.00,0.0011
2068.00,0.0011
2067.00,0.0011
2066.00,0.0011
2065.00,0.0010
2064.00,0.0010
2063.00,0.0010
2062.00,0.0010
2061.00,0.0010
2060.00,0.0011
2059.00,0.0011
2058.00,0.0012
2057.00,0.0012
2056.00,0.0012
2055.00,0.0012
2054.00,0.0013
2053.00,0.0014
2052.00,0.0015
2051.00,0.0016
2050.00,0.0015
2049.00,0.0013
2048.00,0.0011
2047.00,0.0011
2046.00,0.0011
2045.00,0.0012
2044.00,0.0013
2043.00,0.0013
2042.00,0.0014
2041.00,0.0015
2040.00,0.0016
2039.00,0.0018
2038.00,0.0019
2037.00,0.0020
2036.00,0.0021
2035.00,0.0021
2034.00,0.0021
2033.00,0.0020
2032.00,0.0018
2031.00,0.0015
2030.00,0.0014
2029.00,0.0015
2028.00,0.0017
2027.00,0.0018
2026.00,0.0019
2025.00,0.0020
2024.00,0.0020
2023.00,0.0019
2022.00,0.0019
2021.00,0.0019
2020.00,0.0018
2019.00,0.0018
2018.00,0.0018
2017.00,0.0018
2016.00,0.0018
2015.00,0.0018
2014.00,0.0017
2013.00,0.0017
2012.00,0.0017
2011.00,0.0017
2010.00,0.0016
2009.00,0.0015
2008.00,0.0014
2007.00,0.0013
2006.00,0.0013
2005.00,0.0013
2004.00,0.0013
2003.00,0.0014
2002.00,0.0016
2001.00,0.0017
2000.00,0.0018
1999.00,0.0018
1998.00,0.0019
1997.00,0.0019
1996.00,0.0019
1995.00,0.0018
1994.00,0.0017
1993.00,0.0017
1992.00,0.0017
1991.00,0.0018
1990.00,0.0018
1989.00,0.0017
1988.00,0.0016
1987.00,0.0015
1986.00,0.0015
1985.00,0.0016
1984.00,0.0018
1983.00,0.0020
1982.00,0.0021
1981.00,0.0021
1980.00,0.0019
1979.00,0.0016
1978.00,0.0013
1977.00,0.0013
1976.00,0.0014
1975.00,0.0015
1974.00,0.0015
1973.00,0.0015
1972.00,0.0015
1971.00,0.0014
1970.00,0.0014
1969.00,0.0014
1968.00,0.0014
1967.00,0.0014
1966.00,0.0015
1965.00,0.0016
1964.00,0.0016
1963.00,0.0016
1962.00,0.0015
1961.00,0.0014
1960.00,0.0013
1959.00,0.0012
1958.00,0.0011
1957.00,0.0011
1956.00,0.0012
1955.00,0.0013
1954.00,0.0013
1953.00,0.0013
1952.00,0.0013
1951.00,0.0012
1950.00,0.0012
1949.00,0.0012
1948.00,0.0013
1947.00,0.0014
1946.00,0.0015
1945.00,0.0015
1944.00,0.0014
1943.00,0.0013
1942.00,0.0013
1941.00,0.0012
1940.00,0.0011
1939.00,0.0009
1938.00,0.0009
1937.00,0.0009
1936.00,0.0010
1935.00,0.0011
1934.00,0.0012
1933.00,0.0012
1932.00,0.0011
1931.00,0.0011
1930.00,0.0011
1929.00,0.0010
1928.00,0.0010
1927.00,0.0010
1926.00,0.0010
1925.00,0.0011
1924.00,0.0012
1923.00,0.0012
1922.00,0.0012
1921.00,0.0012
1920.00,0.0012
1919.00,0.0012
1918.00,0.0012
1917.00,0.0012
1916.00,0.0012
1915.00,0.0012
1914.00,0.0012
1913.00,0.0012
1912.00,0.0012
1911.00,0.0011
1910.00,0.0011
1909.00,0.0011
1908.00,0.0011
1907.00,0.0010
1906.00,0.0010
1905.00,0.0010
1904.00,0.0010
1903.00,0.0010
1902.00,0.0010
1901.00,0.0010
1900.00,0.0011
1899.00,0.0011
1898.00,0.0012
1897.00,0.0012
1896.00,0.0012
1895.00,0.0012
1894.00,0.0011
1893.00,0.0011
1892.00,0.0011
1891.00,0.0010
1890.00,0.0009
1889.00,0.0009
1888.00,0.0009
1887.00,0.0010
1886.00,0.0010
1885.00,0.0009
1884.00,0.0009
1883.00,0.0008
1882.00,0.0008
1881.00,0.0008
1880.00,0.0009
1879.00,0.0010
1878.00,0.0010
1877.00,0.0010
1876.00,0.0010
1875.00,0.0010
1874.00,0.0010
1873.00,0.0010
1872.00,0.0010
1871.00,0.0010
1870.00,0.0010
1869.00,0.0010
1868.00,0.0010
1867.00,0.0010
1866.00,0.0010
1865.00,0.0010
1864.00,0.0010
1863.00,0.0009
1862.00,0.0009
1861.00,0.0009
1860.00,0.0008
1859.00,0.0009
1858.00,0.0009
1857.00,0.0010
1856.00,0.0010
1855.00,0.0010
1854.00,0.0010
1853.00,0.0010
1852.00,0.0010
1851.00,0.0009
1850.00,0.0009
1849.00,0.0009
1848.00,0.0009
1847.00,0.0010
1846.00,0.0011
1845.00,0.0011
1844.00,0.0010
1843.00,0.0009
1842.00,0.0008
1841.00,0.0008
1840.00,0.0008
1839.00,0.0008
1838.00,0.0008
1837.00,0.0008
1836.00,0.0008
1835.00,0.0008
1834.00,0.0008
1833.00,0.0008
1832.00,0.0008
1831.00,0.0008
1830.00,0.0007
1829.00,0.0006
1828.00,0.0006
1827.00,0.0006
1826.00,0.0006
1825.00,0.0006
1824.00,0.0006
1823.00,0.0007
1822.00,0.0008
1821.00,0.0008
1820.00,0.0008
1819.00,0.0008
1818.00,0.0008
1817.00,0.0007
1816.00,0.0007
1815.00,0.0007
1814.00,0.0006
1813.00,0.0006
1812.00,0.0006
1811.00,0.0006
1810.00,0.0006
1809.00,0.0007
1808.00,0.0007
1807.00,0.0007
1806.00,0.0007
1805.00,0.0007
1804.00,0.0007
1803.00,0.0007
1802.00,0.0007
1801.00,0.0007
1800.00,0.0007
1799.00,0.0008
1798.00,0.0009
1797.00,0.0009
1796.00,0.0010
1795.00,0.0010
1794.00,0.0010
1793.00,0.0010
1792.00,0.0010
1791.00,0.0008
1790.00,0.0008
1789.00,0.0008
1788.00,0.0007
1787.00,0.0007
1786.00,0.0007
1785.00,0.0008
1784.00,0.0007
1783.00,0.0007
1782.00,0.0007
1781.00,0.0007
1780.00,0.0007
1779.00,0.0007
1778.00,0.0007
1777.00,0.0007
1776.00,0.0008
1775.00,0.0008
1774.00,0.0008
1773.00,0.0009
1772.00,0.0008
1771.00,0.0008
1770.00,0.0008
1769.00,0.0008
1768.00,0.0009
1767.00,0.0009
1766.00,0.0009
1765.00,0.0008
1764.00,0.0008
1763.00,0.0007
1762.00,0.0006
1761.00,0.0006
1760.00,0.0007
1759.00,0.0006
1758.00,0.0006
1757.00,0.0006
1756.00,0.0007
1755.00,0.0007
1754.00,0.0008
1753.00,0.0008
1752.00,0.0009
1751.00,0.0010
1750.00,0.0009
1749.00,0.0008
1748.00,0.0007
1747.00,0.0007
1746.00,0.0007
1745.00,0.0006
1744.00,0.0006
1743.00,0.0005
1742.00,0.0005
1741.00,0.0006
1740.00,0.0007
1739.00,0.0008
1738.00,0.0008
1737.00,0.0008
1736.00,0.0010
1735.00,0.0012
1734.00,0.0012
1733.00,0.0011
1732.00,0.0009
1731.00,0.0008
1730.00,0.0007
1729.00,0.0006
1728.00,0.0007
1727.00,0.0007
1726.00,0.0008
1725.00,0.0009
1724.00,0.0010
1723.00,0.0010
1722.00,0.0010
1721.00,0.0009
1720.00,0.0007
1719.00,0.0006
1718.00,0.0009
1717.00,0.0012
1716.00,0.0012
1715.00,0.0012
1714.00,0.0011
1713.00,0.0010
1712.00,0.0009
1711.00,0.0009
1710.00,0.0009
1709.00,0.0010
1708.00,0.0010
1707.00,0.0009
1706.00,0.0009
1705.00,0.0009
1704.00,0.0009
1703.00,0.0009
1702.00,0.0010
1701.00,0.0012
1700.00,0.0015
1699.00,0.0016
1698.00,0.0016
1697.00,0.0015
1696.00,0.0012
1695.00,0.0011
1694.00,0.0012
1693.00,0.0013
1692.00,0.0013
1691.00,0.0013
1690.00,0.0013
1689.00,0.0013
1688.00,0.0013
1687.00,0.0012
1686.00,0.0009
1685.00,0.0008
1684.00,0.0007
1683.00,0.0008
1682.00,0.0011
1681.00,0.0012
1680.00,0.0012
1679.00,0.0012
1678.00,0.0012
1677.00,0.0012
1676.00,0.0013
1675.00,0.0013
1674.00,0.0013
1673.00,0.0012
1672.00,0.0012
1671.00,0.0011
1670.00,0.0011
1669.00,0.0011
1668.00,0.0011
1667.00,0.0012
1666.00,0.0012
1665.00,0.0012
1664.00,0.0013
1663.00,0.0013
1662.00,0.0013
1661.00,0.0013
1660.00,0.0013
1659.00,0.0013
1658.00,0.0013
1657.00,0.0011
1656.00,0.0009
1655.00,0.0007
1654.00,0.0007
1653.00,0.0008
1652.00,0.0011
1651.00,0.0012
1650.00,0.0013
1649.00,0.0013
1648.00,0.0014
1647.00,0.0015
1646.00,0.0014
1645.00,0.0014
1644.00,0.0014
1643.00,0.0015
1642.00,0.0015
1641.00,0.0015
1640.00,0.0015
1639.00,0.0014
1638.00,0.0014
1637.00,0.0013
1636.00,0.0013
1635.00,0.0012
1634.00,0.0013
1633.00,0.0014
1632.00,0.0014
1631.00,0.0014
1630.00,0.0013
1629.00,0.0013
1628.00,0.0013
1627.00,0.0013
1626.00,0.0014
1625.00,0.0014
1624.00,0.0015
1623.00,0.0016
1622.00,0.0015
1621.00,0.0015
1620.00,0.0014
1619.00,0.0014
1618.00,0.0014
1617.00,0.0014
1616.00,0.0014
1615.00,0.0015
1614.00,0.0015
1613.00,0.0015
1612.00,0.0015
1611.00,0.0016
1610.00,0.0016
1609.00,0.0016
1608.00,0.0016
1607.00,0.0016
1606.00,0.0016
1605.00,0.0015
1604.00,0.0015
1603.00,0.0015
1602.00,0.0015
1601.00,0.0015
1600.00,0.0015
1599.00,0.0015
1598.00,0.0015
1597.00,0.0015
1596.00,0.0015
1595.00,0.0015
1594.00,0.0015
1593.00,0.0015
1592.00,0.0015
1591.00,0.0015
1590.00,0.0014
1589.00,0.0014
1588.00,0.0014
1587.00,0.0014
1586.00,0.0014
1585.00,0.0013
1584.00,0.0013
1583.00,0.0013
1582.00,0.0013
1581.00,0.0014
1580.00,0.0014
1579.00,0.0014
1578.00,0.0014
1577.00,0.0014
1576.00,0.0014
1575.00,0.0014
1574.00,0.0014
1573.00,0.0014
1572.00,0.0014
1571.00,0.0014
1570.00,0.0014
1569.00,0.0014
1568.00,0.0014
1567.00,0.0015
1566.00,0.0015
1565.00,0.0015
1564.00,0.0015
1563.00,0.0015
1562.00,0.0012
1561.00,0.0009
1560.00,0.0009
1559.00,0.0014
1558.00,0.0015
1557.00,0.0017
1556.00,0.0018
1555.00,0.0018
1554.00,0.0017
1553.00,0.0016
1552.00,0.0015
1551.00,0.0014
1550.00,0.0013
1549.00,0.0014
1548.00,0.0014
1547.00,0.0015
1546.00,0.0015
1545.00,0.0016
1544.00,0.0017
1543.00,0.0018
1542.00,0.0020
1541.00,0.0019
1540.00,0.0013
1539.00,0.0009
1538.00,0.0009
1537.00,0.0010
1536.00,0.0011
1535.00,0.0011
1534.00,0.0011
1533.00,0.0010
1532.00,0.0010
1531.00,0.0011
1530.00,0.0012
1529.00,0.0013
1528.00,0.0013
1527.00,0.0014
1526.00,0.0015
1525.00,0.0016
1524.00,0.0017
1523.00,0.0016
1522.00,0.0016
1521.00,0.0014
1520.00,0.0012
1519.00,0.0011
1518.00,0.0010
1517.00,0.0010
1516.00,0.0011
1515.00,0.0012
1514.00,0.0014
1513.00,0.0015
1512.00,0.0015
1511.00,0.0014
1510.00,0.0013
1509.00,0.0013
1508.00,0.0014
1507.00,0.0011
1506.00,0.0008
1505.00,0.0010
1504.00,0.0012
1503.00,0.0013
1502.00,0.0013
1501.00,0.0012
1500.00,0.0011
1499.00,0.0011
1498.00,0.0011
1497.00,0.0012
1496.00,0.0012
1495.00,0.0011
1494.00,0.0011
1493.00,0.0012
1492.00,0.0012
1491.00,0.0012
1490.00,0.0012
1489.00,0.0011
1488.00,0.0009
1487.00,0.0008
1486.00,0.0008
1485.00,0.0008
1484.00,0.0009
1483.00,0.0009
1482.00,0.0009
1481.00,0.0009
1480.00,0.0008
1479.00,0.0007
1478.00,0.0007
1477.00,0.0007
1476.00,0.0008
1475.00,0.0010
1474.00,0.0013
1473.00,0.0014
1472.00,0.0011
1471.00,0.0009
1470.00,0.0008
1469.00,0.0008
1468.00,0.0007
1467.00,0.0006
1466.00,0.0005
1465.00,0.0005
1464.00,0.0005
1463.00,0.0005
1462.00,0.0005
1461.00,0.0004
1460.00,0.0004
1459.00,0.0006
1458.00,0.0009
1457.00,0.0011
1456.00,0.0010
1455.00,0.0009
1454.00,0.0008
1453.00,0.0008
1452.00,0.0008
1451.00,0.0008
1450.00,0.0008
1449.00,0.0008
1448.00,0.0009
1447.00,0.0008
1446.00,0.0008
1445.00,0.0008
1444.00,0.0008
1443.00,0.0008
1442.00,0.0008
1441.00,0.0009
1440.00,0.0009
1439.00,0.0009
1438.00,0.0009
1437.00,0.0010
1436.00,0.0010
1435.00,0.0010
1434.00,0.0010
1433.00,0.0010
1432.00,0.0009
1431.00,0.0009
1430.00,0.0009
1429.00,0.0009
1428.00,0.0010
1427.00,0.0010
1426.00,0.0009
1425.00,0.0009
1424.00,0.0009
1423.00,0.0010
1422.00,0.0009
1421.00,0.0009
1420.00,0.0009
1419.00,0.0009
1418.00,0.0009
1417.00,0.0009
1416.00,0.0009
1415.00,0.0009
1414.00,0.0009
1413.00,0.0009
1412.00,0.0009
1411.00,0.0008
1410.00,0.0008
1409.00,0.0008
1408.00,0.0008
1407.00,0.0007
1406.00,0.0007
1405.00,0.0007
1404.00,0.0007
1403.00,0.0008
1402.00,0.0008
1401.00,0.0008
1400.00,0.0008
1399.00,0.0009
1398.00,0.0009
1397.00,0.0009
1396.00,0.0009
1395.00,0.0008
1394.00,0.0007
1393.00,0.0007
1392.00,0.0008
1391.00,0.0008
1390.00,0.0008
1389.00,0.0008
1388.00,0.0008
1387.00,0.0008
1386.00,0.0008
1385.00,0.0007
1384.00,0.0007
1383.00,0.0008
1382.00,0.0008
1381.00,0.0008
1380.00,0.0008
1379.00,0.0008
1378.00,0.0008
1377.00,0.0008
1376.00,0.0008
1375.00,0.0007
1374.00,0.0007
1373.00,0.0007
1372.00,0.0008
1371.00,0.0008
1370.00,0.0009
1369.00,0.0009
1368.00,0.0009
1367.00,0.0009
1366.00,0.0009
1365.00,0.0008
1364.00,0.0008
1363.00,0.0008
1362.00,0.0008
1361.00,0.0009
1360.00,0.0009
1359.00,0.0009
1358.00,0.0009
1357.00,0.0009
1356.00,0.0008
1355.00,0.0008
1354.00,0.0008
1353.00,0.0009
1352.00,0.0009
1351.00,0.0009
1350.00,0.0009
1349.00,0.0009
1348.00,0.0009
1347.00,0.0009
1346.00,0.0009
1345.00,0.0009
1344.00,0.0009
1343.00,0.0009
1342.00,0.0009
1341.00,0.0009
1340.00,0.0009
1339.00,0.0008
1338.00,0.0008
1337.00,0.0008
1336.00,0.0008
1335.00,0.0008
1334.00,0.0008
1333.00,0.0008
1332.00,0.0008
1331.00,0.0008
1330.00,0.0008
1329.00,0.0008
1328.00,0.0008
1327.00,0.0008
1326.00,0.0008
1325.00,0.0008
1324.00,0.0008
1323.00,0.0008
1322.00,0.0009
1321.00,0.0009
1320.00,0.0010
1319.00,0.0010
1318.00,0.0009
1317.00,0.0009
1316.00,0.0010
1315.00,0.0010
1314.00,0.0010
1313.00,0.0010
1312.00,0.0010
1311.00,0.0010
1310.00,0.0010
1309.00,0.0010
1308.00,0.0010
1307.00,0.0010
1306.00,0.0010
1305.00,0.0010
1304.00,0.0010
1303.00,0.0010
1302.00,0.0010
1301.00,0.0010
1300.00,0.0010
1299.00,0.0010
1298.00,0.0010
1297.00,0.0011
1296.00,0.0011
1295.00,0.0011
1294.00,0.0011
1293.00,0.0011
1292.00,0.0011
1291.00,0.0011
1290.00,0.0011
1289.00,0.0011
1288.00,0.0011
1287.00,0.0010
1286.00,0.0010
1285.00,0.0009
1284.00,0.0009
1283.00,0.0009
1282.00,0.0010
1281.00,0.0010
1280.00,0.0010
1279.00,0.0010
1278.00,0.0011
1277.00,0.0011
1276.00,0.0011
1275.00,0.0010
1274.00,0.0010
1273.00,0.0010
1272.00,0.0010
1271.00,0.0010
1270.00,0.0010
1269.00,0.0010
1268.00,0.0010
1267.00,0.0010
1266.00,0.0010
1265.00,0.0010
1264.00,0.0009
1263.00,0.0009
1262.00,0.0009
1261.00,0.0009
1260.00,0.0010
1259.00,0.0010
1258.00,0.0010
1257.00,0.0010
1256.00,0.0010
1255.00,0.0010
1254.00,0.0010
1253.00,0.0010
1252.00,0.0010
1251.00,0.0010
1250.00,0.0010
1249.00,0.0010
1248.00,0.0010
1247.00,0.0011
1246.00,0.0011
1245.00,0.0012
1244.00,0.0012
1243.00,0.0012
1242.00,0.0013
1241.00,0.0013
1240.00,0.0013
1239.00,0.0014
1238.00,0.0014
1237.00,0.0014
1236.00,0.0014
1235.00,0.0014
1234.00,0.0014
1233.00,0.0015
1232.00,0.0015
1231.00,0.0016
1230.00,0.0016
1229.00,0.0016
1228.00,0.0017
1227.00,0.0017
1226.00,0.0017
1225.00,0.0017
1224.00,0.0018
1223.00,0.0018
1222.00,0.0019
1221.00,0.0019
1220.00,0.0019
1219.00,0.0019
1218.00,0.0019
1217.00,0.0019
1216.00,0.0019
1215.00,0.0019
1214.00,0.0020
1213.00,0.0021
1212.00,0.0022
1211.00,0.0022
1210.00,0.0023
1209.00,0.0023
1208.00,0.0023
1207.00,0.0023
1206.00,0.0023
1205.00,0.0024
1204.00,0.0024
1203.00,0.0024
1202.00,0.0025
1201.00,0.0025
1200.00,0.0025
1199.00,0.0025
1198.00,0.0025
1197.00,0.0025
1196.00,0.0026
1195.00,0.0026
1194.00,0.0026
1193.00,0.0026
1192.00,0.0026
1191.00,0.0026
1190.00,0.0026
1189.00,0.0027
1188.00,0.0027
1187.00,0.0027
1186.00,0.0027
1185.00,0.0028
1184.00,0.0028
1183.00,0.0028
1182.00,0.0028
1181.00,0.0028
1180.00,0.0028
1179.00,0.0029
1178.00,0.0029
1177.00,0.0030
1176.00,0.0030
1175.00,0.0030
1174.00,0.0030
1173.00,0.0029
1172.00,0.0029
1171.00,0.0029
1170.00,0.0030
1169.00,0.0030
1168.00,0.0031
1167.00,0.0031
1166.00,0.0031
1165.00,0.0031
1164.00,0.0031
1163.00,0.0031
1162.00,0.0031
1161.00,0.0031
1160.00,0.0031
1159.00,0.0030
1158.00,0.0030
1157.00,0.0030
1156.00,0.0030
1155.00,0.0031
1154.00,0.0031
1153.00,0.0030
1152.00,0.0030
1151.00,0.0030
1150.00,0.0030
1149.00,0.0030
1148.00,0.0031
1147.00,0.0031
1146.00,0.0032
1145.00,0.0033
1144.00,0.0033
1143.00,0.0033
1142.00,0.0033
1141.00,0.0033
1140.00,0.0033
1139.00,0.0033
1138.00,0.0034
1137.00,0.0035
1136.00,0.0036
1135.00,0.0036
1134.00,0.0037
1133.00,0.0037
1132.00,0.0037
1131.00,0.0037
1130.00,0.0037
1129.00,0.0037
1128.00,0.0038
1127.00,0.0039
1126.00,0.0039
1125.00,0.0039
1124.00,0.0039
1123.00,0.0038
1122.00,0.0039
1121.00,0.0040
1120.00,0.0041
1119.00,0.0041
1118.00,0.0041
1117.00,0.0042
1116.00,0.0043
1115.00,0.0044
1114.00,0.0045
1113.00,0.0045
1112.00,0.0045
1111.00,0.0046
1110.00,0.0047
1109.00,0.0047
1108.00,0.0047
1107.00,0.0047
1106.00,0.0048
1105.00,0.0048
1104.00,0.0049
1103.00,0.0050
1102.00,0.0051
1101.00,0.0052
1100.00,0.0053
1099.00,0.0053
1098.00,0.0053
1097.00,0.0052
1096.00,0.0053
1095.00,0.0053
1094.00,0.0053
1093.00,0.0054
1092.00,0.0055
1091.00,0.0055
1090.00,0.0056
1089.00,0.0057
1088.00,0.0058
1087.00,0.0058
1086.00,0.0058
1085.00,0.0058
1084.00,0.0057
1083.00,0.0057
1082.00,0.0057
1081.00,0.0057
1080.00,0.0058
1079.00,0.0059
1078.00,0.0059
1077.00,0.0059
1076.00,0.0061
1075.00,0.0062
1074.00,0.0063
1073.00,0.0063
1072.00,0.0063
1071.00,0.0063
1070.00,0.0063
1069.00,0.0063
1068.00,0.0063
1067.00,0.0063
1066.00,0.0062
1065.00,0.0063
1064.00,0.0063
1063.00,0.0063
1062.00,0.0063
1061.00,0.0063
1060.00,0.0062
1059.00,0.0062
1058.00,0.0062
1057.00,0.0062
1056.00,0.0062
1055.00,0.0062
1054.00,0.0063
1053.00,0.0064
1052.00,0.0064
1051.00,0.0065
1050.00,0.0065
1049.00,0.0065
1048.00,0.0064
1047.00,0.0063
1046.00,0.0062
1045.00,0.0062
1044.00,0.0062
1043.00,0.0062
1042.00,0.0062
1041.00,0.0062
1040.00,0.0062
1039.00,0.0062
1038.00,0.0061
1037.00,0.0061
1036.00,0.0061
1035.00,0.0061
1034.00,0.0061
1033.00,0.0061
1032.00,0.0061
1031.00,0.0061
1030.00,0.0060
1029.00,0.0060
1028.00,0.0059
1027.00,0.0058
1026.00,0.0057
1025.00,0.0056
1024.00,0.0055
1023.00,0.0055
1022.00,0.0055
1021.00,0.0055
1020.00,0.0055
1019.00,0.0055
1018.00,0.0055
1017.00,0.0054
1016.00,0.0054
1015.00,0.0054
1014.00,0.0054
1013.00,0.0054
1012.00,0.0053
1011.00,0.0053
1010.00,0.0052
1009.00,0.0052
1008.00,0.0052
1007.00,0.0051
1006.00,0.0051
1005.00,0.0051
1004.00,0.0051
1003.00,0.0051
1002.00,0.0050
1001.00,0.0050
1000.00,0.0049
999.00,0.0048
998.00,0.0048
997.00,0.0047
996.00,0.0047
995.00,0.0047
994.00,0.0047
993.00,0.0047
992.00,0.0047
991.00,0.0047
990.00,0.0046
989.00,0.0045
988.00,0.0044
987.00,0.0044
986.00,0.0043
985.00,0.0043
984.00,0.0043
983.00,0.0044
982.00,0.0044
981.00,0.0044
980.00,0.0043
979.00,0.0043
978.00,0.0042
977.00,0.0042
976.00,0.0042
975.00,0.0041
974.00,0.0041
973.00,0.0040
972.00,0.0039
971.00,0.0039
970.00,0.0038
969.00,0.0038
968.00,0.0038
967.00,0.0038
966.00,0.0038
965.00,0.0037
964.00,0.0037
963.00,0.0036
962.00,0.0036
961.00,0.0036
960.00,0.0036
959.00,0.0036
958.00,0.0036
957.00,0.0036
956.00,0.0035
955.00,0.0035
954.00,0.0034
953.00,0.0034
952.00,0.0034
951.00,0.0034
950.00,0.0034
949.00,0.0034
948.00,0.0034
947.00,0.0034
946.00,0.0034
945.00,0.0034
944.00,0.0034
943.00,0.0033
942.00,0.0034
941.00,0.0034
940.00,0.0034
939.00,0.0035
938.00,0.0035
937.00,0.0036
936.00,0.0037
935.00,0.0036
934.00,0.0036
933.00,0.0035
932.00,0.0035
931.00,0.0035
930.00,0.0035
929.00,0.0035
928.00,0.0034
927.00,0.0034
926.00,0.0034
925.00,0.0034
924.00,0.0034
923.00,0.0033
922.00,0.0033
921.00,0.0032
920.00,0.0032
919.00,0.0033
918.00,0.0035
917.00,0.0036
916.00,0.0037
915.00,0.0037
914.00,0.0036
913.00,0.0035
912.00,0.0035
911.00,0.0035
910.00,0.0035
909.00,0.0035
908.00,0.0034
907.00,0.0033
906.00,0.0033
905.00,0.0033
904.00,0.0034
903.00,0.0035
902.00,0.0035
901.00,0.0034
900.00,0.0034
899.00,0.0034
898.00,0.0034
897.00,0.0034
896.00,0.0034
895.00,0.0033
894.00,0.0032
893.00,0.0031
892.00,0.0031
891.00,0.0031
890.00,0.0032
889.00,0.0033
888.00,0.0034
887.00,0.0034
886.00,0.0033
885.00,0.0033
884.00,0.0033
883.00,0.0033
882.00,0.0033
881.00,0.0032
880.00,0.0032
879.00,0.0032
878.00,0.0032
877.00,0.0032
876.00,0.0031
875.00,0.0030
874.00,0.0030
873.00,0.0031
872.00,0.0033
871.00,0.0034
870.00,0.0034
869.00,0.0033
868.00,0.0032
867.00,0.0030
866.00,0.0028
865.00,0.0028
864.00,0.0028
863.00,0.0029
862.00,0.0030
861.00,0.0031
860.00,0.0032
859.00,0.0032
858.00,0.0032
857.00,0.0031
856.00,0.0030
855.00,0.0029
854.00,0.0028
853.00,0.0028
852.00,0.0027
851.00,0.0027
850.00,0.0028
849.00,0.0029
848.00,0.0030
847.00,0.0030
846.00,0.0029
845.00,0.0029
844.00,0.0029
843.00,0.0029
842.00,0.0029
841.00,0.0029
840.00,0.0030
839.00,0.0031
838.00,0.0031
837.00,0.0030
836.00,0.0028
835.00,0.0026
834.00,0.0025
833.00,0.0025
832.00,0.0026
831.00,0.0028
830.00,0.0030
829.00,0.0032
828.00,0.0032
827.00,0.0031
826.00,0.0030
825.00,0.0028
824.00,0.0028
823.00,0.0029
822.00,0.0030
821.00,0.0032
820.00,0.0034
819.00,0.0035
818.00,0.0036
817.00,0.0035
816.00,0.0034
815.00,0.0032
814.00,0.0032
813.00,0.0033
812.00,0.0034
811.00,0.0034
810.00,0.0033
809.00,0.0034
808.00,0.0036
807.00,0.0038
806.00,0.0041
805.00,0.0043
804.00,0.0045
803.00,0.0047
802.00,0.0048
801.00,0.0048
800.00,0.0047
799.00,0.0047
798.00,0.0048
797.00,0.0050
796.00,0.0051
795.00,0.0051
794.00,0.0050
793.00,0.0049
792.00,0.0048
791.00,0.0048
790.00,0.0048
789.00,0.0049
788.00,0.0050
787.00,0.0050
786.00,0.0050
785.00,0.0048
784.00,0.0047
783.00,0.0047
782.00,0.0048
781.00,0.0050
780.00,0.0052
779.00,0.0053
778.00,0.0054
777.00,0.0054
776.00,0.0053
775.00,0.0052
774.00,0.0051
773.00,0.0051
772.00,0.0049
771.00,0.0047
770.00,0.0045
769.00,0.0043
768.00,0.0042
767.00,0.0042
766.00,0.0042
765.00,0.0041
764.00,0.0040
763.00,0.0040
762.00,0.0041
761.00,0.0043
760.00,0.0045
759.00,0.0045
758.00,0.0044
757.00,0.0044
756.00,0.0042
755.00,0.0040
754.00,0.0038
753.00,0.0037
752.00,0.0038
751.00,0.0039
750.00,0.0041
749.00,0.0042
748.00,0.0042
747.00,0.0042
746.00,0.0042
745.00,0.0042
744.00,0.0041
743.00,0.0041
742.00,0.0041
741.00,0.0040
740.00,0.0038
739.00,0.0036
738.00,0.0035
737.00,0.0036
736.00,0.0039
735.00,0.0040
734.00,0.0039
733.00,0.0039
732.00,0.0040
731.00,0.0041
730.00,0.0041
729.00,0.0040
728.00,0.0039
727.00,0.0039
726.00,0.0039
725.00,0.0038
724.00,0.0038
723.00,0.0037
722.00,0.0038
721.00,0.0040
720.00,0.0041
719.00,0.0040
718.00,0.0040
717.00,0.0040
716.00,0.0040
715.00,0.0040
714.00,0.0041
713.00,0.0042
712.00,0.0042
711.00,0.0041
710.00,0.0040
709.00,0.0039
708.00,0.0040
707.00,0.0042
706.00,0.0043
705.00,0.0044
704.00,0.0044
703.00,0.0044
702.00,0.0045
701.00,0.0045
700.00,0.0045
699.00,0.0045
698.00,0.0044
697.00,0.0043
696.00,0.0043
695.00,0.0044
694.00,0.0045
693.00,0.0046
692.00,0.0046
691.00,0.0047
690.00,0.0047
689.00,0.0047
688.00,0.0046
687.00,0.0045
686.00,0.0045
685.00,0.0047
684.00,0.0047
683.00,0.0044
682.00,0.0040
681.00,0.0039
680.00,0.0040
679.00,0.0041
678.00,0.0040
677.00,0.0037
676.00,0.0037
675.00,0.0040
674.00,0.0043
673.00,0.0046
672.00,0.0048
671.00,0.0049
670.00,0.0053
669.00,0.0056
668.00,0.0057
667.00,0.0055
666.00,0.0053
665.00,0.0052
664.00,0.0051
663.00,0.0048
662.00,0.0042
661.00,0.0038
660.00,0.0037
659.00,0.0038
658.00,0.0039
657.00,0.0038
656.00,0.0038
655.00,0.0041
654.00,0.0044
653.00,0.0046
652.00,0.0043
651.00,0.0037
650.00,0.0033
