Created as New Dataset,Monday, April 03 2023
cm-1,A
4000.00,0.0017
3999.00,0.0017
3998.00,0.0017
3997.00,0.0017
3996.00,0.0017
3995.00,0.0016
3994.00,0.0016
3993.00,0.0016
3992.00,0.0016
3991.00,0.0017
3990.00,0.0017
3989.00,0.0017
3988.00,0.0017
3987.00,0.0016
3986.00,0.0016
3985.00,0.0016
3984.00,0.0017
3983.00,0.0017
3982.00,0.0017
3981.00,0.0017
3980.00,0.0017
3979.00,0.0017
3978.00,0.0017
3977.00,0.0016
3976.00,0.0016
3975.00,0.0015
3974.00,0.0015
3973.00,0.0016
3972.00,0.0016
3971.00,0.0017
3970.00,0.0018
3969.00,0.0018
3968.00,0.0017
3967.00,0.0016
3966.00,0.0016
3965.00,0.0016
3964.00,0.0016
3963.00,0.0017
3962.00,0.0018
3961.00,0.0018
3960.00,0.0017
3959.00,0.0016
3958.00,0.0016
3957.00,0.0016
3956.00,0.0016
3955.00,0.0015
3954.00,0.0015
3953.00,0.0015
3952.00,0.0016
3951.00,0.0017
3950.00,0.0017
3949.00,0.0018
3948.00,0.0018
3947.00,0.0018
3946.00,0.0018
3945.00,0.0018
3944.00,0.0017
3943.00,0.0015
3942.00,0.0015
3941.00,0.0015
3940.00,0.0015
3939.00,0.0015
3938.00,0.0015
3937.00,0.0015
3936.00,0.0015
3935.00,0.0015
3934.00,0.0015
3933.00,0.0015
3932.00,0.0016
3931.00,0.0016
3930.00,0.0016
3929.00,0.0017
3928.00,0.0017
3927.00,0.0017
3926.00,0.0017
3925.00,0.0017
3924.00,0.0017
3923.00,0.0017
3922.00,0.0017
3921.00,0.0016
3920.00,0.0016
3919.00,0.0016
3918.00,0.0017
3917.00,0.0017
3916.00,0.0017
3915.00,0.0016
3914.00,0.0016
3913.00,0.0015
3912.00,0.0015
3911.00,0.0015
3910.00,0.0015
3909.00,0.0015
3908.00,0.0016
3907.00,0.0016
3906.00,0.0017
3905.00,0.0017
3904.00,0.0017
3903.00,0.0018
3902.00,0.0020
3901.00,0.0020
3900.00,0.0020
3899.00,0.0019
3898.00,0.0018
3897.00,0.0017
3896.00,0.0017
3895.00,0.0016
3894.00,0.0016
3893.00,0.0016
3892.00,0.0015
3891.00,0.0015
3890.00,0.0014
3889.00,0.0015
3888.00,0.0015
3887.00,0.0014
3886.00,0.0013
3885.00,0.0013
3884.00,0.0014
3883.00,0.0016
3882.00,0.0016
3881.00,0.0015
3880.00,0.0014
3879.00,0.0015
3878.00,0.0017
3877.00,0.0018
3876.00,0.0019
3875.00,0.0018
3874.00,0.0016
3873.00,0.0016
3872.00,0.0017
3871.00,0.0017
3870.00,0.0016
3869.00,0.0016
3868.00,0.0016
3867.00,0.0017
3866.00,0.0017
3865.00,0.0017
3864.00,0.0017
3863.00,0.0018
3862.00,0.0018
3861.00,0.0018
3860.00,0.0017
3859.00,0.0016
3858.00,0.0016
3857.00,0.0016
3856.00,0.0016
3855.00,0.0015
3854.00,0.0014
3853.00,0.0016
3852.00,0.0017
3851.00,0.0017
3850.00,0.0016
3849.00,0.0015
3848.00,0.0014
3847.00,0.0014
3846.00,0.0014
3845.00,0.0015
3844.00,0.0015
3843.00,0.0015
3842.00,0.0016
3841.00,0.0017
3840.00,0.0018
3839.00,0.0018
3838.00,0.0018
3837.00,0.0017
3836.00,0.0016
3835.00,0.0016
3834.00,0.0017
3833.00,0.0017
3832.00,0.0016
3831.00,0.0016
3830.00,0.0016
3829.00,0.0016
3828.00,0.0016
3827.00,0.0015
3826.00,0.0014
3825.00,0.0015
3824.00,0.0017
3823.00,0.0019
3822.00,0.0018
3821.00,0.0017
3820.00,0.0016
3819.00,0.0017
3818.00,0.0018
3817.00,0.0017
3816.00,0.0016
3815.00,0.0016
3814.00,0.0016
3813.00,0.0016
3812.00,0.0015
3811.00,0.0014
3810.00,0.0013
3809.00,0.0014
3808.00,0.0014
3807.00,0.0014
3806.00,0.0015
3805.00,0.0017
3804.00,0.0019
3803.00,0.0020
3802.00,0.0019
3801.00,0.0018
3800.00,0.0018
3799.00,0.0017
3798.00,0.0017
3797.00,0.0015
3796.00,0.0014
3795.00,0.0014
3794.00,0.0015
3793.00,0.0015
3792.00,0.0014
3791.00,0.0014
3790.00,0.0014
3789.00,0.0014
3788.00,0.0015
3787.00,0.0016
3786.00,0.0016
3785.00,0.0016
3784.00,0.0016
3783.00,0.0017
3782.00,0.0017
3781.00,0.0017
3780.00,0.0016
3779.00,0.0015
3778.00,0.0014
3777.00,0.0014
3776.00,0.0014
3775.00,0.0014
3774.00,0.0014
3773.00,0.0014
3772.00,0.0014
3771.00,0.0013
3770.00,0.0013
3769.00,0.0013
3768.00,0.0014
3767.00,0.0014
3766.00,0.0014
3765.00,0.0014
3764.00,0.0015
3763.00,0.0016
3762.00,0.0016
3761.00,0.0016
3760.00,0.0015
3759.00,0.0015
3758.00,0.0014
3757.00,0.0014
3756.00,0.0015
3755.00,0.0015
3754.00,0.0015
3753.00,0.0015
3752.00,0.0014
3751.00,0.0015
3750.00,0.0015
3749.00,0.0016
3748.00,0.0017
3747.00,0.0019
3746.00,0.0020
3745.00,0.0018
3744.00,0.0016
3743.00,0.0015
3742.00,0.0015
3741.00,0.0015
3740.00,0.0016
3739.00,0.0017
3738.00,0.0018
3737.00,0.0019
3736.00,0.0018
3735.00,0.0018
3734.00,0.0018
3733.00,0.0017
3732.00,0.0016
3731.00,0.0015
3730.00,0.0015
3729.00,0.0015
3728.00,0.0015
3727.00,0.0014
3726.00,0.0014
3725.00,0.0015
3724.00,0.0015
3723.00,0.0015
3722.00,0.0015
3721.00,0.0015
3720.00,0.0016
3719.00,0.0016
3718.00,0.0015
3717.00,0.0014
3716.00,0.0014
3715.00,0.0015
3714.00,0.0016
3713.00,0.0016
3712.00,0.0017
3711.00,0.0017
3710.00,0.0017
3709.00,0.0017
3708.00,0.0017
3707.00,0.0017
3706.00,0.0018
3705.00,0.0019
3704.00,0.0020
3703.00,0.0019
3702.00,0.0018
3701.00,0.0018
3700.00,0.0019
3699.00,0.0020
3698.00,0.0020
3697.00,0.0019
3696.00,0.0018
3695.00,0.0018
3694.00,0.0018
3693.00,0.0018
3692.00,0.0019
3691.00,0.0021
3690.00,0.0022
3689.00,0.0023
3688.00,0.0022
3687.00,0.0020
3686.00,0.0019
3685.00,0.0018
3684.00,0.0018
3683.00,0.0017
3682.00,0.0017
3681.00,0.0016
3680.00,0.0015
3679.00,0.0014
3678.00,0.0015
3677.00,0.0015
3676.00,0.0015
3675.00,0.0016
3674.00,0.0017
3673.00,0.0018
3672.00,0.0019
3671.00,0.0019
3670.00,0.0019
3669.00,0.0020
3668.00,0.0020
3667.00,0.0020
3666.00,0.0019
3665.00,0.0018
3664.00,0.0018
3663.00,0.0018
3662.00,0.0018
3661.00,0.0019
3660.00,0.0020
3659.00,0.0021
3658.00,0.0022
3657.00,0.0022
3656.00,0.0022
3655.00,0.0023
3654.00,0.0024
3653.00,0.0026
3652.00,0.0027
3651.00,0.0027
3650.00,0.0027
3649.00,0.0028
3648.00,0.0028
3647.00,0.0028
3646.00,0.0027
3645.00,0.0027
3644.00,0.0027
3643.00,0.0026
3642.00,0.0026
3641.00,0.0026
3640.00,0.0026
3639.00,0.0027
3638.00,0.0027
3637.00,0.0027
3636.00,0.0028
3635.00,0.0028
3634.00,0.0028
3633.00,0.0029
3632.00,0.0030
3631.00,0.0031
3630.00,0.0032
3629.00,0.0033
3628.00,0.0034
3627.00,0.0034
3626.00,0.0033
3625.00,0.0032
3624.00,0.0031
3623.00,0.0031
3622.00,0.0032
3621.00,0.0034
3620.00,0.0035
3619.00,0.0037
3618.00,0.0038
3617.00,0.0038
3616.00,0.0038
3615.00,0.0037
3614.00,0.0036
3613.00,0.0034
3612.00,0.0034
3611.00,0.0035
3610.00,0.0036
3609.00,0.0038
3608.00,0.0038
3607.00,0.0038
3606.00,0.0037
3605.00,0.0036
3604.00,0.0036
3603.00,0.0036
3602.00,0.0037
3601.00,0.0038
3600.00,0.0039
3599.00,0.0039
3598.00,0.0039
3597.00,0.0038
3596.00,0.0038
3595.00,0.0038
3594.00,0.0037
3593.00,0.0037
3592.00,0.0037
3591.00,0.0037
3590.00,0.0038
3589.00,0.0039
3588.00,0.0039
3587.00,0.0040
3586.00,0.0041
3585.00,0.0041
3584.00,0.0040
3583.00,0.0039
3582.00,0.0039
3581.00,0.0038
3580.00,0.0039
3579.00,0.0039
3578.00,0.0039
3577.00,0.0039
3576.00,0.0039
3575.00,0.0040
3574.00,0.0040
3573.00,0.0040
3572.00,0.0040
3571.00,0.0040
3570.00,0.0040
3569.00,0.0041
3568.00,0.0043
3567.00,0.0044
3566.00,0.0046
3565.00,0.0045
3564.00,0.0044
3563.00,0.0043
3562.00,0.0042
3561.00,0.0042
3560.00,0.0043
3559.00,0.0043
3558.00,0.0043
3557.00,0.0044
3556.00,0.0045
3555.00,0.0045
3554.00,0.0046
3553.00,0.0046
3552.00,0.0046
3551.00,0.0047
3550.00,0.0048
3549.00,0.0048
3548.00,0.0047
3547.00,0.0047
3546.00,0.0048
3545.00,0.0048
3544.00,0.0048
3543.00,0.0048
3542.00,0.0048
3541.00,0.0048
3540.00,0.0047
3539.00,0.0046
3538.00,0.0045
3537.00,0.0045
3536.00,0.0045
3535.00,0.0046
3534.00,0.0047
3533.00,0.0049
3532.00,0.0049
3531.00,0.0049
3530.00,0.0048
3529.00,0.0047
3528.00,0.0047
3527.00,0.0046
3526.00,0.0047
3525.00,0.0049
3524.00,0.0051
3523.00,0.0051
3522.00,0.0051
3521.00,0.0050
3520.00,0.0048
3519.00,0.0047
3518.00,0.0046
3517.00,0.0046
3516.00,0.0046
3515.00,0.0046
3514.00,0.0047
3513.00,0.0049
3512.00,0.0050
3511.00,0.0051
3510.00,0.0050
3509.00,0.0050
3508.00,0.0049
3507.00,0.0049
3506.00,0.0050
3505.00,0.0050
3504.00,0.0051
3503.00,0.0052
3502.00,0.0053
3501.00,0.0053
3500.00,0.0052
3499.00,0.0052
3498.00,0.0053
3497.00,0.0053
3496.00,0.0053
3495.00,0.0052
3494.00,0.0052
3493.00,0.0052
3492.00,0.0052
3491.00,0.0052
3490.00,0.0052
3489.00,0.0052
3488.00,0.0052
3487.00,0.0052
3486.00,0.0052
3485.00,0.0052
3484.00,0.0052
3483.00,0.0052
3482.00,0.0052
3481.00,0.0053
3480.00,0.0053
3479.00,0.0053
3478.00,0.0053
3477.00,0.0053
3476.00,0.0054
3475.00,0.0054
3474.00,0.0054
3473.00,0.0054
3472.00,0.0054
3471.00,0.0054
3470.00,0.0054
3469.00,0.0054
3468.00,0.0055
3467.00,0.0055
3466.00,0.0056
3465.00,0.0057
3464.00,0.0057
3463.00,0.0056
3462.00,0.0054
3461.00,0.0054
3460.00,0.0054
3459.00,0.0055
3458.00,0.0056
3457.00,0.0056
3456.00,0.0055
3455.00,0.0054
3454.00,0.0054
3453.00,0.0055
3452.00,0.0055
3451.00,0.0056
3450.00,0.0057
3449.00,0.0057
3448.00,0.0057
3447.00,0.0058
3446.00,0.0058
3445.00,0.0058
3444.00,0.0058
3443.00,0.0058
3442.00,0.0057
3441.00,0.0056
3440.00,0.0055
3439.00,0.0055
3438.00,0.0055
3437.00,0.0055
3436.00,0.0055
3435.00,0.0055
3434.00,0.0055
3433.00,0.0055
3432.00,0.0056
3431.00,0.0056
3430.00,0.0057
3429.00,0.0056
3428.00,0.0056
3427.00,0.0056
3426.00,0.0057
3425.00,0.0058
3424.00,0.0059
3423.00,0.0059
3422.00,0.0060
3421.00,0.0060
3420.00,0.0060
3419.00,0.0059
3418.00,0.0059
3417.00,0.0059
3416.00,0.0058
3415.00,0.0057
3414.00,0.0057
3413.00,0.0057
3412.00,0.0058
3411.00,0.0058
3410.00,0.0058
3409.00,0.0059
3408.00,0.0059
3407.00,0.0059
3406.00,0.0059
3405.00,0.0058
3404.00,0.0058
3403.00,0.0057
3402.00,0.0058
3401.00,0.0059
3400.00,0.0060
3399.00,0.0060
3398.00,0.0060
3397.00,0.0059
3396.00,0.0059
3395.00,0.0058
3394.00,0.0058
3393.00,0.0058
3392.00,0.0059
3391.00,0.0059
3390.00,0.0060
3389.00,0.0060
3388.00,0.0060
3387.00,0.0059
3386.00,0.0059
3385.00,0.0059
3384.00,0.0059
3383.00,0.0059
3382.00,0.0060
3381.00,0.0060
3380.00,0.0060
3379.00,0.0061
3378.00,0.0061
3377.00,0.0061
3376.00,0.0060
3375.00,0.0060
3374.00,0.0060
3373.00,0.0059
3372.00,0.0059
3371.00,0.0058
3370.00,0.0058
3369.00,0.0059
3368.00,0.0059
3367.00,0.0059
3366.00,0.0059
3365.00,0.0058
3364.00,0.0058
3363.00,0.0058
3362.00,0.0059
3361.00,0.0060
3360.00,0.0061
3359.00,0.0062
3358.00,0.0061
3357.00,0.0061
3356.00,0.0060
3355.00,0.0060
3354.00,0.0060
3353.00,0.0060
3352.00,0.0061
3351.00,0.0061
3350.00,0.0061
3349.00,0.0061
3348.00,0.0061
3347.00,0.0060
3346.00,0.0060
3345.00,0.0060
3344.00,0.0060
3343.00,0.0060
3342.00,0.0060
3341.00,0.0060
3340.00,0.0061
3339.00,0.0061
3338.00,0.0061
3337.00,0.0061
3336.00,0.0061
3335.00,0.0060
3334.00,0.0060
3333.00,0.0060
3332.00,0.0059
3331.00,0.0059
3330.00,0.0058
3329.00,0.0058
3328.00,0.0058
3327.00,0.0058
3326.00,0.0059
3325.00,0.0059
3324.00,0.0060
3323.00,0.0060
3322.00,0.0060
3321.00,0.0059
3320.00,0.0059
3319.00,0.0059
3318.00,0.0059
3317.00,0.0059
3316.00,0.0059
3315.00,0.0059
3314.00,0.0058
3313.00,0.0058
3312.00,0.0058
3311.00,0.0058
3310.00,0.0059
3309.00,0.0060
3308.00,0.0060
3307.00,0.0061
3306.00,0.0060
3305.00,0.0059
3304.00,0.0058
3303.00,0.0058
3302.00,0.0058
3301.00,0.0059
3300.00,0.0059
3299.00,0.0058
3298.00,0.0058
3297.00,0.0059
3296.00,0.0059
3295.00,0.0060
3294.00,0.0060
3293.00,0.0059
3292.00,0.0058
3291.00,0.0058
3290.00,0.0057
3289.00,0.0057
3288.00,0.0058
3287.00,0.0058
3286.00,0.0059
3285.00,0.0059
3284.00,0.0060
3283.00,0.0060
3282.00,0.0060
3281.00,0.0059
3280.00,0.0059
3279.00,0.0058
3278.00,0.0058
3277.00,0.0058
3276.00,0.0058
3275.00,0.0058
3274.00,0.0058
3273.00,0.0059
3272.00,0.0059
3271.00,0.0060
3270.00,0.0060
3269.00,0.0060
3268.00,0.0060
3267.00,0.0060
3266.00,0.0060
3265.00,0.0058
3264.00,0.0057
3263.00,0.0057
3262.00,0.0057
3261.00,0.0057
3260.00,0.0058
3259.00,0.0058
3258.00,0.0058
3257.00,0.0057
3256.00,0.0057
3255.00,0.0057
3254.00,0.0057
3253.00,0.0058
3252.00,0.0058
3251.00,0.0058
3250.00,0.0058
3249.00,0.0057
3248.00,0.0057
3247.00,0.0057
3246.00,0.0057
3245.00,0.0057
3244.00,0.0057
3243.00,0.0056
3242.00,0.0056
3241.00,0.0056
3240.00,0.0057
3239.00,0.0057
3238.00,0.0058
3237.00,0.0059
3236.00,0.0060
3235.00,0.0060
3234.00,0.0060
3233.00,0.0060
3232.00,0.0060
3231.00,0.0059
3230.00,0.0058
3229.00,0.0058
3228.00,0.0057
3227.00,0.0057
3226.00,0.0057
3225.00,0.0057
3224.00,0.0056
3223.00,0.0056
3222.00,0.0057
3221.00,0.0057
3220.00,0.0057
3219.00,0.0057
3218.00,0.0057
3217.00,0.0057
3216.00,0.0058
3215.00,0.0058
3214.00,0.0058
3213.00,0.0057
3212.00,0.0056
3211.00,0.0056
3210.00,0.0055
3209.00,0.0055
3208.00,0.0055
3207.00,0.0056
3206.00,0.0056
3205.00,0.0057
3204.00,0.0057
3203.00,0.0057
3202.00,0.0057
3201.00,0.0057
3200.00,0.0057
3199.00,0.0057
3198.00,0.0057
3197.00,0.0057
3196.00,0.0057
3195.00,0.0056
3194.00,0.0056
3193.00,0.0056
3192.00,0.0056
3191.00,0.0055
3190.00,0.0055
3189.00,0.0054
3188.00,0.0054
3187.00,0.0053
3186.00,0.0053
3185.00,0.0054
3184.00,0.0054
3183.00,0.0055
3182.00,0.0056
3181.00,0.0056
3180.00,0.0056
3179.00,0.0055
3178.00,0.0054
3177.00,0.0053
3176.00,0.0053
3175.00,0.0053
3174.00,0.0053
3173.00,0.0054
3172.00,0.0054
3171.00,0.0054
3170.00,0.0053
3169.00,0.0053
3168.00,0.0053
3167.00,0.0053
3166.00,0.0054
3165.00,0.0055
3164.00,0.0056
3163.00,0.0056
3162.00,0.0055
3161.00,0.0054
3160.00,0.0053
3159.00,0.0052
3158.00,0.0051
3157.00,0.0051
3156.00,0.0051
3155.00,0.0052
3154.00,0.0053
3153.00,0.0054
3152.00,0.0054
3151.00,0.0054
3150.00,0.0053
3149.00,0.0053
3148.00,0.0053
3147.00,0.0053
3146.00,0.0052
3145.00,0.0052
3144.00,0.0052
3143.00,0.0052
3142.00,0.0052
3141.00,0.0052
3140.00,0.0052
3139.00,0.0052
3138.00,0.0052
3137.00,0.0053
3136.00,0.0053
3135.00,0.0052
3134.00,0.0052
3133.00,0.0052
3132.00,0.0052
3131.00,0.0052
3130.00,0.0052
3129.00,0.0052
3128.00,0.0051
3127.00,0.0051
3126.00,0.0051
3125.00,0.0051
3124.00,0.0051
3123.00,0.0051
3122.00,0.0051
3121.00,0.0051
3120.00,0.0051
3119.00,0.0051
3118.00,0.0051
3117.00,0.0051
3116.00,0.0051
3115.00,0.0050
3114.00,0.0050
3113.00,0.0050
3112.00,0.0050
3111.00,0.0050
3110.00,0.0050
3109.00,0.0050
3108.00,0.0050
3107.00,0.0051
3106.00,0.0051
3105.00,0.0051
3104.00,0.0051
3103.00,0.0051
3102.00,0.0050
3101.00,0.0050
3100.00,0.0049
3099.00,0.0049
3098.00,0.0049
3097.00,0.0049
3096.00,0.0049
3095.00,0.0050
3094.00,0.0051
3093.00,0.0051
3092.00,0.0051
3091.00,0.0051
3090.00,0.0050
3089.00,0.0049
3088.00,0.0048
3087.00,0.0048
3086.00,0.0048
3085.00,0.0049
3084.00,0.0049
3083.00,0.0049
3082.00,0.0049
3081.00,0.0049
3080.00,0.0050
3079.00,0.0050
3078.00,0.0050
3077.00,0.0050
3076.00,0.0049
3075.00,0.0049
3074.00,0.0049
3073.00,0.0050
3072.00,0.0050
3071.00,0.0050
3070.00,0.0050
3069.00,0.0050
3068.00,0.0050
3067.00,0.0050
3066.00,0.0050
3065.00,0.0049
3064.00,0.0048
3063.00,0.0047
3062.00,0.0048
3061.00,0.0048
3060.00,0.0048
3059.00,0.0048
3058.00,0.0048
3057.00,0.0048
3056.00,0.0047
3055.00,0.0047
3054.00,0.0047
3053.00,0.0046
3052.00,0.0047
3051.00,0.0047
3050.00,0.0048
3049.00,0.0049
3048.00,0.0049
3047.00,0.0049
3046.00,0.0049
3045.00,0.0049
3044.00,0.0048
3043.00,0.0047
3042.00,0.0046
3041.00,0.0046
3040.00,0.0045
3039.00,0.0046
3038.00,0.0046
3037.00,0.0047
3036.00,0.0047
3035.00,0.0047
3034.00,0.0047
3033.00,0.0047
3032.00,0.0046
3031.00,0.0046
3030.00,0.0045
3029.00,0.0045
3028.00,0.0044
3027.00,0.0044
3026.00,0.0045
3025.00,0.0045
3024.00,0.0044
3023.00,0.0044
3022.00,0.0044
3021.00,0.0044
3020.00,0.0044
3019.00,0.0043
3018.00,0.0042
3017.00,0.0041
3016.00,0.0041
3015.00,0.0040
3014.00,0.0040
3013.00,0.0039
3012.00,0.0039
3011.00,0.0039
3010.00,0.0038
3009.00,0.0037
3008.00,0.0035
3007.00,0.0034
3006.00,0.0033
3005.00,0.0032
3004.00,0.0031
3003.00,0.0029
3002.00,0.0027
3001.00,0.0026
3000.00,0.0025
2999.00,0.0023
2998.00,0.0022
2997.00,0.0021
2996.00,0.0020
2995.00,0.0020
2994.00,0.0019
2993.00,0.0019
2992.00,0.0018
2991.00,0.0017
2990.00,0.0017
2989.00,0.0016
2988.00,0.0015
2987.00,0.0014
2986.00,0.0011
2985.00,0.0007
2984.00,0.0003
2983.00,-0.0000
2982.00,-0.0002
2981.00,-0.0002
2980.00,-0.0001
2979.00,0.0001
2978.00,0.0004
2977.00,0.0006
2976.00,0.0007
2975.00,0.0008
2974.00,0.0007
2973.00,0.0006
2972.00,0.0006
2971.00,0.0006
2970.00,0.0008
2969.00,0.0010
2968.00,0.0012
2967.00,0.0013
2966.00,0.0014
2965.00,0.0014
2964.00,0.0015
2963.00,0.0016
2962.00,0.0017
2961.00,0.0017
2960.00,0.0018
2959.00,0.0018
2958.00,0.0018
2957.00,0.0018
2956.00,0.0019
2955.00,0.0020
2954.00,0.0022
2953.00,0.0023
2952.00,0.0024
2951.00,0.0024
2950.00,0.0025
2949.00,0.0025
2948.00,0.0026
2947.00,0.0026
2946.00,0.0026
2945.00,0.0027
2944.00,0.0027
2943.00,0.0028
2942.00,0.0029
2941.00,0.0029
2940.00,0.0028
2939.00,0.0028
2938.00,0.0027
2937.00,0.0027
2936.00,0.0028
2935.00,0.0028
2934.00,0.0028
2933.00,0.0028
2932.00,0.0027
2931.00,0.0027
2930.00,0.0027
2929.00,0.0027
2928.00,0.0027
2927.00,0.0027
2926.00,0.0027
2925.00,0.0026
2924.00,0.0026
2923.00,0.0026
2922.00,0.0026
2921.00,0.0026
2920.00,0.0025
2919.00,0.0025
2918.00,0.0024
2917.00,0.0024
2916.00,0.0024
2915.00,0.0024
2914.00,0.0024
2913.00,0.0024
2912.00,0.0025
2911.00,0.0025
2910.00,0.0026
2909.00,0.0026
2908.00,0.0025
2907.00,0.0025
2906.00,0.0025
2905.00,0.0024
2904.00,0.0024
2903.00,0.0024
2902.00,0.0024
2901.00,0.0024
2900.00,0.0024
2899.00,0.0024
2898.00,0.0024
2897.00,0.0024
2896.00,0.0024
2895.00,0.0024
2894.00,0.0024
2893.00,0.0023
2892.00,0.0023
2891.00,0.0023
2890.00,0.0023
2889.00,0.0023
2888.00,0.0023
2887.00,0.0023
2886.00,0.0023
2885.00,0.0023
2884.00,0.0022
2883.00,0.0022
2882.00,0.0023
2881.00,0.0023
2880.00,0.0024
2879.00,0.0025
2878.00,0.0026
2877.00,0.0026
2876.00,0.0026
2875.00,0.0026
2874.00,0.0026
2873.00,0.0025
2872.00,0.0025
2871.00,0.0025
2870.00,0.0026
2869.00,0.0026
2868.00,0.0026
2867.00,0.0026
2866.00,0.0027
2865.00,0.0027
2864.00,0.0027
2863.00,0.0027
2862.00,0.0027
2861.00,0.0027
2860.00,0.0028
2859.00,0.0028
2858.00,0.0029
2857.00,0.0030
2856.00,0.0029
2855.00,0.0029
2854.00,0.0028
2853.00,0.0027
2852.00,0.0028
2851.00,0.0029
2850.00,0.0029
2849.00,0.0030
2848.00,0.0030
2847.00,0.0030
2846.00,0.0030
2845.00,0.0030
2844.00,0.0031
2843.00,0.0031
2842.00,0.0031
2841.00,0.0031
2840.00,0.0030
2839.00,0.0029
2838.00,0.0029
2837.00,0.0029
2836.00,0.0030
2835.00,0.0031
2834.00,0.0032
2833.00,0.0031
2832.00,0.0031
2831.00,0.0030
2830.00,0.0030
2829.00,0.0030
2828.00,0.0031
2827.00,0.0031
2826.00,0.0031
2825.00,0.0031
2824.00,0.0031
2823.00,0.0031
2822.00,0.0030
2821.00,0.0030
2820.00,0.0030
2819.00,0.0029
2818.00,0.0029
2817.00,0.0029
2816.00,0.0029
2815.00,0.0029
2814.00,0.0029
2813.00,0.0029
2812.00,0.0029
2811.00,0.0029
2810.00,0.0029
2809.00,0.0029
2808.00,0.0028
2807.00,0.0028
2806.00,0.0029
2805.00,0.0029
2804.00,0.0029
2803.00,0.0029
2802.00,0.0029
2801.00,0.0029
2800.00,0.0029
2799.00,0.0029
2798.00,0.0029
2797.00,0.0029
2796.00,0.0029
2795.00,0.0029
2794.00,0.0029
2793.00,0.0028
2792.00,0.0028
2791.00,0.0028
2790.00,0.0028
2789.00,0.0028
2788.00,0.0028
2787.00,0.0028
2786.00,0.0028
2785.00,0.0028
2784.00,0.0028
2783.00,0.0028
2782.00,0.0027
2781.00,0.0026
2780.00,0.0026
2779.00,0.0026
2778.00,0.0026
2777.00,0.0027
2776.00,0.0027
2775.00,0.0028
2774.00,0.0027
2773.00,0.0027
2772.00,0.0027
2771.00,0.0027
2770.00,0.0026
2769.00,0.0025
2768.00,0.0025
2767.00,0.0025
2766.00,0.0025
2765.00,0.0025
2764.00,0.0026
2763.00,0.0026
2762.00,0.0026
2761.00,0.0026
2760.00,0.0026
2759.00,0.0025
2758.00,0.0025
2757.00,0.0025
2756.00,0.0025
2755.00,0.0025
2754.00,0.0025
2753.00,0.0025
2752.00,0.0025
2751.00,0.0026
2750.00,0.0026
2749.00,0.0026
2748.00,0.0026
2747.00,0.0026
2746.00,0.0026
2745.00,0.0026
2744.00,0.0026
2743.00,0.0026
2742.00,0.0025
2741.00,0.0025
2740.00,0.0025
2739.00,0.0024
2738.00,0.0024
2737.00,0.0023
2736.00,0.0024
2735.00,0.0024
2734.00,0.0025
2733.00,0.0025
2732.00,0.0025
2731.00,0.0025
2730.00,0.0025
2729.00,0.0025
2728.00,0.0025
2727.00,0.0025
2726.00,0.0025
2725.00,0.0025
2724.00,0.0025
2723.00,0.0024
2722.00,0.0024
2721.00,0.0024
2720.00,0.0024
2719.00,0.0024
2718.00,0.0024
2717.00,0.0024
2716.00,0.0025
2715.00,0.0025
2714.00,0.0024
2713.00,0.0024
2712.00,0.0024
2711.00,0.0024
2710.00,0.0024
2709.00,0.0024
2708.00,0.0024
2707.00,0.0024
2706.00,0.0023
2705.00,0.0023
2704.00,0.0023
2703.00,0.0023
2702.00,0.0023
2701.00,0.0023
2700.00,0.0023
2699.00,0.0023
2698.00,0.0023
2697.00,0.0023
2696.00,0.0023
2695.00,0.0023
2694.00,0.0023
2693.00,0.0024
2692.00,0.0024
2691.00,0.0024
2690.00,0.0024
2689.00,0.0024
2688.00,0.0023
2687.00,0.0023
2686.00,0.0023
2685.00,0.0023
2684.00,0.0023
2683.00,0.0023
2682.00,0.0023
2681.00,0.0023
2680.00,0.0022
2679.00,0.0022
2678.00,0.0021
2677.00,0.0021
2676.00,0.0021
2675.00,0.0021
2674.00,0.0021
2673.00,0.0022
2672.00,0.0022
2671.00,0.0021
2670.00,0.0021
2669.00,0.0021
2668.00,0.0021
2667.00,0.0021
2666.00,0.0021
2665.00,0.0022
2664.00,0.0022
2663.00,0.0022
2662.00,0.0022
2661.00,0.0022
2660.00,0.0022
2659.00,0.0022
2658.00,0.0022
2657.00,0.0022
2656.00,0.0022
2655.00,0.0022
2654.00,0.0022
2653.00,0.0022
2652.00,0.0022
2651.00,0.0023
2650.00,0.0023
2649.00,0.0023
2648.00,0.0022
2647.00,0.0022
2646.00,0.0021
2645.00,0.0021
2644.00,0.0021
2643.00,0.0022
2642.00,0.0022
2641.00,0.0022
2640.00,0.0022
2639.00,0.0022
2638.00,0.0021
2637.00,0.0021
2636.00,0.0021
2635.00,0.0021
2634.00,0.0021
2633.00,0.0022
2632.00,0.0022
2631.00,0.0022
2630.00,0.0022
2629.00,0.0021
2628.00,0.0020
2627.00,0.0020
2626.00,0.0020
2625.00,0.0021
2624.00,0.0022
2623.00,0.0022
2622.00,0.0022
2621.00,0.0022
2620.00,0.0022
2619.00,0.0022
2618.00,0.0022
2617.00,0.0022
2616.00,0.0022
2615.00,0.0022
2614.00,0.0021
2613.00,0.0022
2612.00,0.0023
2611.00,0.0023
2610.00,0.0023
2609.00,0.0022
2608.00,0.0021
2607.00,0.0020
2606.00,0.0021
2605.00,0.0021
2604.00,0.0022
2603.00,0.0022
2602.00,0.0023
2601.00,0.0023
2600.00,0.0022
2599.00,0.0022
2598.00,0.0021
2597.00,0.0021
2596.00,0.0020
2595.00,0.0020
2594.00,0.0020
2593.00,0.0020
2592.00,0.0021
2591.00,0.0021
2590.00,0.0022
2589.00,0.0022
2588.00,0.0022
2587.00,0.0021
2586.00,0.0021
2585.00,0.0020
2584.00,0.0020
2583.00,0.0020
2582.00,0.0021
2581.00,0.0021
2580.00,0.0022
2579.00,0.0022
2578.00,0.0022
2577.00,0.0021
2576.00,0.0020
2575.00,0.0020
2574.00,0.0020
2573.00,0.0020
2572.00,0.0021
2571.00,0.0020
2570.00,0.0020
2569.00,0.0019
2568.00,0.0020
2567.00,0.0020
2566.00,0.0021
2565.00,0.0021
2564.00,0.0021
2563.00,0.0021
2562.00,0.0021
2561.00,0.0022
2560.00,0.0022
2559.00,0.0021
2558.00,0.0021
2557.00,0.0021
2556.00,0.0022
2555.00,0.0022
2554.00,0.0021
2553.00,0.0021
2552.00,0.0019
2551.00,0.0018
2550.00,0.0017
2549.00,0.0016
2548.00,0.0016
2547.00,0.0016
2546.00,0.0017
2545.00,0.0018
2544.00,0.0018
2543.00,0.0019
2542.00,0.0018
2541.00,0.0017
2540.00,0.0016
2539.00,0.0015
2538.00,0.0015
2537.00,0.0015
2536.00,0.0015
2535.00,0.0016
2534.00,0.0016
2533.00,0.0017
2532.00,0.0018
2531.00,0.0018
2530.00,0.0017
2529.00,0.0017
2528.00,0.0016
2527.00,0.0015
2526.00,0.0015
2525.00,0.0015
2524.00,0.0015
2523.00,0.0015
2522.00,0.0015
2521.00,0.0016
2520.00,0.0016
2519.00,0.0017
2518.00,0.0018
2517.00,0.0019
2516.00,0.0019
2515.00,0.0019
2514.00,0.0018
2513.00,0.0017
2512.00,0.0017
2511.00,0.0017
2510.00,0.0018
2509.00,0.0018
2508.00,0.0018
2507.00,0.0018
2506.00,0.0018
2505.00,0.0017
2504.00,0.0017
2503.00,0.0017
2502.00,0.0017
2501.00,0.0017
2500.00,0.0018
2499.00,0.0018
2498.00,0.0018
2497.00,0.0018
2496.00,0.0018
2495.00,0.0018
2494.00,0.0019
2493.00,0.0019
2492.00,0.0020
2491.00,0.0020
2490.00,0.0020
2489.00,0.0020
2488.00,0.0020
2487.00,0.0019
2486.00,0.0018
2485.00,0.0017
2484.00,0.0017
2483.00,0.0017
2482.00,0.0017
2481.00,0.0018
2480.00,0.0019
2479.00,0.0019
2478.00,0.0019
2477.00,0.0018
2476.00,0.0017
2475.00,0.0017
2474.00,0.0017
2473.00,0.0017
2472.00,0.0017
2471.00,0.0017
2470.00,0.0017
2469.00,0.0017
2468.00,0.0017
2467.00,0.0017
2466.00,0.0016
2465.00,0.0016
2464.00,0.0016
2463.00,0.0016
2462.00,0.0016
2461.00,0.0016
2460.00,0.0016
2459.00,0.0017
2458.00,0.0017
2457.00,0.0018
2456.00,0.0018
2455.00,0.0018
2454.00,0.0018
2453.00,0.0019
2452.00,0.0019
2451.00,0.0019
2450.00,0.0018
2449.00,0.0018
2448.00,0.0017
2447.00,0.0017
2446.00,0.0017
2445.00,0.0017
2444.00,0.0017
2443.00,0.0016
2442.00,0.0016
2441.00,0.0016
2440.00,0.0017
2439.00,0.0017
2438.00,0.0017
2437.00,0.0017
2436.00,0.0016
2435.00,0.0016
2434.00,0.0015
2433.00,0.0015
2432.00,0.0015
2431.00,0.0016
2430.00,0.0016
2429.00,0.0017
2428.00,0.0017
2427.00,0.0017
2426.00,0.0017
2425.00,0.0017
2424.00,0.0017
2423.00,0.0017
2422.00,0.0017
2421.00,0.0017
2420.00,0.0017
2419.00,0.0016
2418.00,0.0016
2417.00,0.0015
2416.00,0.0015
2415.00,0.0015
2414.00,0.0015
2413.00,0.0015
2412.00,0.0015
2411.00,0.0015
2410.00,0.0016
2409.00,0.0016
2408.00,0.0016
2407.00,0.0016
2406.00,0.0015
2405.00,0.0015
2404.00,0.0015
2403.00,0.0015
2402.00,0.0014
2401.00,0.0014
2400.00,0.0014
2399.00,0.0014
2398.00,0.0014
2397.00,0.0013
2396.00,0.0013
2395.00,0.0013
2394.00,0.0013
2393.00,0.0014
2392.00,0.0013
2391.00,0.0013
2390.00,0.0013
2389.00,0.0013
2388.00,0.0013
2387.00,0.0013
2386.00,0.0013
2385.00,0.0013
2384.00,0.0012
2383.00,0.0012
2382.00,0.0011
2381.00,0.0012
2380.00,0.0013
2379.00,0.0014
2378.00,0.0014
2377.00,0.0014
2376.00,0.0013
2375.00,0.0012
2374.00,0.0012
2373.00,0.0012
2372.00,0.0012
2371.00,0.0012
2370.00,0.0011
2369.00,0.0008
2368.00,0.0007
2367.00,0.0008
2366.00,0.0011
2365.00,0.0014
2364.00,0.0014
2363.00,0.0012
2362.00,0.0010
2361.00,0.0010
2360.00,0.0011
2359.00,0.0012
2358.00,0.0012
2357.00,0.0012
2356.00,0.0011
2355.00,0.0010
2354.00,0.0009
2353.00,0.0010
2352.00,0.0010
2351.00,0.0011
2350.00,0.0011
2349.00,0.0011
2348.00,0.0011
2347.00,0.0011
2346.00,0.0011
2345.00,0.0011
2344.00,0.0012
2343.00,0.0013
2342.00,0.0014
2341.00,0.0014
2340.00,0.0013
2339.00,0.0012
2338.00,0.0010
2337.00,0.0009
2336.00,0.0009
2335.00,0.0010
2334.00,0.0012
2333.00,0.0013
2332.00,0.0012
2331.00,0.0011
2330.00,0.0010
2329.00,0.0009
2328.00,0.0009
2327.00,0.0010
2326.00,0.0012
2325.00,0.0012
2324.00,0.0011
2323.00,0.0010
2322.00,0.0010
2321.00,0.0010
2320.00,0.0009
2319.00,0.0008
2318.00,0.0007
2317.00,0.0008
2316.00,0.0009
2315.00,0.0010
2314.00,0.0011
2313.00,0.0011
2312.00,0.0011
2311.00,0.0011
2310.00,0.0012
2309.00,0.0013
2308.00,0.0013
2307.00,0.0013
2306.00,0.0013
2305.00,0.0013
2304.00,0.0012
2303.00,0.0010
2302.00,0.0009
2301.00,0.0009
2300.00,0.0010
2299.00,0.0010
2298.00,0.0010
2297.00,0.0010
2296.00,0.0010
2295.00,0.0010
2294.00,0.0011
2293.00,0.0012
2292.00,0.0014
2291.00,0.0015
2290.00,0.0015
2289.00,0.0014
2288.00,0.0014
2287.00,0.0014
2286.00,0.0016
2285.00,0.0017
2284.00,0.0019
2283.00,0.0019
2282.00,0.0019
2281.00,0.0018
2280.00,0.0016
2279.00,0.0016
2278.00,0.0016
2277.00,0.0017
2276.00,0.0016
2275.00,0.0016
2274.00,0.0014
2273.00,0.0013
2272.00,0.0013
2271.00,0.0012
2270.00,0.0012
2269.00,0.0012
2268.00,0.0013
2267.00,0.0013
2266.00,0.0014
2265.00,0.0015
2264.00,0.0016
2263.00,0.0016
2262.00,0.0017
2261.00,0.0017
2260.00,0.0016
2259.00,0.0015
2258.00,0.0014
2257.00,0.0011
2256.00,0.0010
2255.00,0.0010
2254.00,0.0011
2253.00,0.0012
2252.00,0.0012
2251.00,0.0013
2250.00,0.0013
2249.00,0.0012
2248.00,0.0011
2247.00,0.0011
2246.00,0.0012
2245.00,0.0014
2244.00,0.0015
2243.00,0.0015
2242.00,0.0015
2241.00,0.0015
2240.00,0.0015
2239.00,0.0014
2238.00,0.0013
2237.00,0.0012
2236.00,0.0011
2235.00,0.0012
2234.00,0.0013
2233.00,0.0014
2232.00,0.0014
2231.00,0.0013
2230.00,0.0012
2229.00,0.0012
2228.00,0.0013
2227.00,0.0014
2226.00,0.0014
2225.00,0.0015
2224.00,0.0014
2223.00,0.0014
2222.00,0.0013
2221.00,0.0012
2220.00,0.0011
2219.00,0.0011
2218.00,0.0011
2217.00,0.0011
2216.00,0.0012
2215.00,0.0013
2214.00,0.0013
2213.00,0.0013
2212.00,0.0012
2211.00,0.0010
2210.00,0.0010
2209.00,0.0011
2208.00,0.0013
2207.00,0.0014
2206.00,0.0014
2205.00,0.0013
2204.00,0.0011
2203.00,0.0010
2202.00,0.0010
2201.00,0.0009
2200.00,0.0008
2199.00,0.0007
2198.00,0.0007
2197.00,0.0008
2196.00,0.0008
2195.00,0.0008
2194.00,0.0008
2193.00,0.0007
2192.00,0.0006
2191.00,0.0004
2190.00,0.0002
2189.00,0.0001
2188.00,0.0002
2187.00,0.0005
2186.00,0.0009
2185.00,0.0011
2184.00,0.0010
2183.00,0.0008
2182.00,0.0006
2181.00,0.0006
2180.00,0.0008
2179.00,0.0010
2178.00,0.0012
2177.00,0.0013
2176.00,0.0012
2175.00,0.0011
2174.00,0.0009
2173.00,0.0008
2172.00,0.0007
2171.00,0.0008
2170.00,0.0009
2169.00,0.0010
2168.00,0.0011
2167.00,0.0011
2166.00,0.0012
2165.00,0.0015
2164.00,0.0018
2163.00,0.0021
2162.00,0.0021
2161.00,0.0019
2160.00,0.0012
2159.00,0.0006
2158.00,0.0002
2157.00,0.0001
2156.00,0.0002
2155.00,0.0003
2154.00,0.0005
2153.00,0.0006
2152.00,0.0006
2151.00,0.0004
2150.00,0.0001
2149.00,-0.0000
2148.00,0.0001
2147.00,0.0003
2146.00,0.0006
2145.00,0.0009
2144.00,0.0010
2143.00,0.0012
2142.00,0.0013
2141.00,0.0014
2140.00,0.0013
2139.00,0.0012
2138.00,0.0010
2137.00,0.0008
2136.00,0.0006
2135.00,0.0004
2134.00,0.0004
2133.00,0.0004
2132.00,0.0005
2131.00,0.0005
2130.00,0.0005
2129.00,0.0007
2128.00,0.0009
2127.00,0.0011
2126.00,0.0011
2125.00,0.0010
2124.00,0.0009
2123.00,0.0008
2122.00,0.0008
2121.00,0.0007
2120.00,0.0007
2119.00,0.0007
2118.00,0.0007
2117.00,0.0007
2116.00,0.0006
2115.00,0.0004
2114.00,0.0002
2113.00,0.0002
2112.00,0.0003
2111.00,0.0005
2110.00,0.0008
2109.00,0.0010
2108.00,0.0012
2107.00,0.0013
2106.00,0.0013
2105.00,0.0013
2104.00,0.0012
2103.00,0.0010
2102.00,0.0010
2101.00,0.0009
2100.00,0.0009
2099.00,0.0007
2098.00,0.0006
2097.00,0.0005
2096.00,0.0006
2095.00,0.0007
2094.00,0.0008
2093.00,0.0008
2092.00,0.0008
2091.00,0.0008
2090.00,0.0007
2089.00,0.0007
2088.00,0.0008
2087.00,0.0008
2086.00,0.0009
2085.00,0.0011
2084.00,0.0011
2083.00,0.0012
2082.00,0.0011
2081.00,0.0010
2080.00,0.0010
2079.00,0.0010
2078.00,0.0010
2077.00,0.0010
2076.00,0.0011
2075.00,0.0011
2074.00,0.0011
2073.00,0.0009
2072.00,0.0009
2071.00,0.0009
2070.00,0.0009
2069.00,0.0008
2068.00,0.0006
2067.00,0.0005
2066.00,0.0005
2065.00,0.0007
2064.00,0.0008
2063.00,0.0010
2062.00,0.0011
2061.00,0.0011
2060.00,0.0010
2059.00,0.0009
2058.00,0.0008
2057.00,0.0008
2056.00,0.0009
2055.00,0.0009
2054.00,0.0010
2053.00,0.0011
2052.00,0.0012
2051.00,0.0012
2050.00,0.0011
2049.00,0.0009
2048.00,0.0007
2047.00,0.0007
2046.00,0.0009
2045.00,0.0012
2044.00,0.0014
2043.00,0.0015
2042.00,0.0014
2041.00,0.0011
2040.00,0.0008
2039.00,0.0006
2038.00,0.0008
2037.00,0.0011
2036.00,0.0015
2035.00,0.0015
2034.00,0.0013
2033.00,0.0012
2032.00,0.0014
2031.00,0.0016
2030.00,0.0017
2029.00,0.0015
2028.00,0.0012
2027.00,0.0008
2026.00,0.0006
2025.00,0.0004
2024.00,0.0003
2023.00,0.0002
2022.00,0.0002
2021.00,0.0003
2020.00,0.0003
2019.00,0.0000
2018.00,-0.0003
2017.00,-0.0005
2016.00,-0.0004
2015.00,-0.0002
2014.00,0.0001
2013.00,0.0003
2012.00,0.0005
2011.00,0.0006
2010.00,0.0008
2009.00,0.0010
2008.00,0.0009
2007.00,0.0007
2006.00,0.0003
2005.00,0.0000
2004.00,-0.0001
2003.00,0.0001
2002.00,0.0006
2001.00,0.0010
2000.00,0.0011
1999.00,0.0009
1998.00,0.0007
1997.00,0.0008
1996.00,0.0011
1995.00,0.0014
1994.00,0.0016
1993.00,0.0016
1992.00,0.0015
1991.00,0.0012
1990.00,0.0008
1989.00,0.0006
1988.00,0.0005
1987.00,0.0005
1986.00,0.0004
1985.00,0.0004
1984.00,0.0004
1983.00,0.0004
1982.00,0.0005
1981.00,0.0004
1980.00,0.0003
1979.00,0.0001
1978.00,-0.0002
1977.00,-0.0004
1976.00,-0.0003
1975.00,0.0000
1974.00,0.0004
1973.00,0.0005
1972.00,0.0003
1971.00,0.0001
1970.00,0.0002
1969.00,0.0004
1968.00,0.0005
1967.00,0.0004
1966.00,0.0002
1965.00,0.0000
1964.00,0.0000
1963.00,0.0001
1962.00,0.0002
1961.00,0.0003
1960.00,0.0004
1959.00,0.0006
1958.00,0.0007
1957.00,0.0007
1956.00,0.0006
1955.00,0.0005
1954.00,0.0005
1953.00,0.0006
1952.00,0.0006
1951.00,0.0006
1950.00,0.0004
1949.00,0.0003
1948.00,0.0002
1947.00,0.0003
1946.00,0.0003
1945.00,0.0002
1944.00,0.0001
1943.00,-0.0001
1942.00,-0.0002
1941.00,-0.0001
1940.00,-0.0001
1939.00,-0.0000
1938.00,-0.0000
1937.00,-0.0000
1936.00,-0.0001
1935.00,-0.0001
1934.00,-0.0003
1933.00,-0.0003
1932.00,-0.0002
1931.00,-0.0001
1930.00,0.0002
1929.00,0.0004
1928.00,0.0006
1927.00,0.0007
1926.00,0.0007
1925.00,0.0007
1924.00,0.0005
1923.00,0.0004
1922.00,0.0003
1921.00,0.0003
1920.00,0.0002
1919.00,0.0002
1918.00,0.0001
1917.00,0.0001
1916.00,0.0002
1915.00,0.0003
1914.00,0.0003
1913.00,0.0004
1912.00,0.0004
1911.00,0.0003
1910.00,0.0002
1909.00,0.0001
1908.00,-0.0000
1907.00,-0.0001
1906.00,-0.0000
1905.00,0.0001
1904.00,0.0002
1903.00,0.0002
1902.00,0.0002
1901.00,0.0002
1900.00,0.0002
1899.00,0.0002
1898.00,0.0003
1897.00,0.0002
1896.00,0.0001
1895.00,-0.0001
1894.00,-0.0002
1893.00,-0.0001
1892.00,0.0001
1891.00,0.0002
1890.00,0.0002
1889.00,0.0002
1888.00,0.0001
1887.00,0.0000
1886.00,-0.0000
1885.00,0.0000
1884.00,0.0001
1883.00,0.0002
1882.00,0.0002
1881.00,0.0001
1880.00,0.0001
1879.00,0.0000
1878.00,-0.0001
1877.00,-0.0001
1876.00,-0.0000
1875.00,0.0001
1874.00,0.0002
1873.00,0.0003
1872.00,0.0004
1871.00,0.0004
1870.00,0.0003
1869.00,0.0002
1868.00,0.0001
1867.00,0.0001
1866.00,0.0001
1865.00,0.0002
1864.00,0.0002
1863.00,0.0001
1862.00,0.0001
1861.00,-0.0000
1860.00,-0.0001
1859.00,-0.0001
1858.00,-0.0001
1857.00,-0.0000
1856.00,0.0000
1855.00,0.0000
1854.00,-0.0000
1853.00,-0.0001
1852.00,-0.0000
1851.00,0.0000
1850.00,0.0001
1849.00,0.0002
1848.00,0.0002
1847.00,0.0002
1846.00,0.0002
1845.00,0.0001
1844.00,0.0000
1843.00,-0.0000
1842.00,-0.0000
1841.00,0.0000
1840.00,0.0000
1839.00,0.0000
1838.00,0.0001
1837.00,0.0001
1836.00,0.0001
1835.00,0.0001
1834.00,0.0001
1833.00,0.0001
1832.00,0.0002
1831.00,0.0003
1830.00,0.0003
1829.00,0.0003
1828.00,0.0002
1827.00,0.0002
1826.00,0.0002
1825.00,0.0001
1824.00,0.0001
1823.00,0.0001
1822.00,0.0001
1821.00,0.0001
1820.00,0.0000
1819.00,0.0000
1818.00,-0.0000
1817.00,-0.0000
1816.00,-0.0001
1815.00,-0.0000
1814.00,-0.0000
1813.00,0.0000
1812.00,0.0001
1811.00,0.0001
1810.00,0.0001
1809.00,0.0001
1808.00,0.0001
1807.00,0.0001
1806.00,0.0002
1805.00,0.0002
1804.00,0.0002
1803.00,0.0002
1802.00,0.0002
1801.00,0.0002
1800.00,0.0002
1799.00,0.0002
1798.00,0.0002
1797.00,0.0003
1796.00,0.0003
1795.00,0.0004
1794.00,0.0003
1793.00,0.0003
1792.00,0.0003
1791.00,0.0003
1790.00,0.0003
1789.00,0.0003
1788.00,0.0003
1787.00,0.0003
1786.00,0.0004
1785.00,0.0004
1784.00,0.0005
1783.00,0.0006
1782.00,0.0006
1781.00,0.0006
1780.00,0.0005
1779.00,0.0005
1778.00,0.0005
1777.00,0.0006
1776.00,0.0007
1775.00,0.0008
1774.00,0.0008
1773.00,0.0007
1772.00,0.0005
1771.00,0.0005
1770.00,0.0005
1769.00,0.0006
1768.00,0.0007
1767.00,0.0007
1766.00,0.0008
1765.00,0.0008
1764.00,0.0008
1763.00,0.0008
1762.00,0.0007
1761.00,0.0007
1760.00,0.0008
1759.00,0.0008
1758.00,0.0008
1757.00,0.0008
1756.00,0.0009
1755.00,0.0010
1754.00,0.0012
1753.00,0.0012
1752.00,0.0011
1751.00,0.0010
1750.00,0.0009
1749.00,0.0010
1748.00,0.0011
1747.00,0.0012
1746.00,0.0012
1745.00,0.0013
1744.00,0.0014
1743.00,0.0014
1742.00,0.0015
1741.00,0.0015
1740.00,0.0014
1739.00,0.0014
1738.00,0.0015
1737.00,0.0016
1736.00,0.0017
1735.00,0.0017
1734.00,0.0017
1733.00,0.0017
1732.00,0.0018
1731.00,0.0018
1730.00,0.0019
1729.00,0.0020
1728.00,0.0020
1727.00,0.0021
1726.00,0.0021
1725.00,0.0022
1724.00,0.0023
1723.00,0.0024
1722.00,0.0024
1721.00,0.0025
1720.00,0.0026
1719.00,0.0026
1718.00,0.0025
1717.00,0.0024
1716.00,0.0025
1715.00,0.0026
1714.00,0.0027
1713.00,0.0028
1712.00,0.0028
1711.00,0.0029
1710.00,0.0029
1709.00,0.0029
1708.00,0.0029
1707.00,0.0030
1706.00,0.0030
1705.00,0.0031
1704.00,0.0032
1703.00,0.0033
1702.00,0.0033
1701.00,0.0032
1700.00,0.0031
1699.00,0.0031
1698.00,0.0032
1697.00,0.0034
1696.00,0.0035
1695.00,0.0035
1694.00,0.0035
1693.00,0.0035
1692.00,0.0036
1691.00,0.0037
1690.00,0.0038
1689.00,0.0038
1688.00,0.0039
1687.00,0.0041
1686.00,0.0041
1685.00,0.0041
1684.00,0.0040
1683.00,0.0040
1682.00,0.0040
1681.00,0.0040
1680.00,0.0040
1679.00,0.0041
1678.00,0.0042
1677.00,0.0043
1676.00,0.0044
1675.00,0.0045
1674.00,0.0045
1673.00,0.0046
1672.00,0.0046
1671.00,0.0046
1670.00,0.0046
1669.00,0.0047
1668.00,0.0047
1667.00,0.0047
1666.00,0.0047
1665.00,0.0048
1664.00,0.0048
1663.00,0.0049
1662.00,0.0049
1661.00,0.0050
1660.00,0.0052
1659.00,0.0053
1658.00,0.0055
1657.00,0.0055
1656.00,0.0056
1655.00,0.0055
1654.00,0.0053
1653.00,0.0055
1652.00,0.0057
1651.00,0.0057
1650.00,0.0057
1649.00,0.0057
1648.00,0.0057
1647.00,0.0058
1646.00,0.0060
1645.00,0.0061
1644.00,0.0062
1643.00,0.0062
1642.00,0.0062
1641.00,0.0062
1640.00,0.0062
1639.00,0.0063
1638.00,0.0064
1637.00,0.0065
1636.00,0.0066
1635.00,0.0067
1634.00,0.0067
1633.00,0.0066
1632.00,0.0065
1631.00,0.0064
1630.00,0.0064
1629.00,0.0065
1628.00,0.0065
1627.00,0.0065
1626.00,0.0066
1625.00,0.0067
1624.00,0.0068
1623.00,0.0069
1622.00,0.0070
1621.00,0.0069
1620.00,0.0069
1619.00,0.0069
1618.00,0.0069
1617.00,0.0069
1616.00,0.0069
1615.00,0.0069
1614.00,0.0069
1613.00,0.0069
1612.00,0.0069
1611.00,0.0069
1610.00,0.0070
1609.00,0.0069
1608.00,0.0069
1607.00,0.0069
1606.00,0.0069
1605.00,0.0070
1604.00,0.0069
1603.00,0.0069
1602.00,0.0068
1601.00,0.0067
1600.00,0.0066
1599.00,0.0066
1598.00,0.0066
1597.00,0.0067
1596.00,0.0067
1595.00,0.0067
1594.00,0.0068
1593.00,0.0067
1592.00,0.0066
1591.00,0.0065
1590.00,0.0065
1589.00,0.0065
1588.00,0.0065
1587.00,0.0066
1586.00,0.0067
1585.00,0.0067
1584.00,0.0066
1583.00,0.0065
1582.00,0.0065
1581.00,0.0065
1580.00,0.0065
1579.00,0.0065
1578.00,0.0067
1577.00,0.0067
1576.00,0.0067
1575.00,0.0065
1574.00,0.0064
1573.00,0.0063
1572.00,0.0063
1571.00,0.0063
1570.00,0.0063
1569.00,0.0063
1568.00,0.0062
1567.00,0.0062
1566.00,0.0061
1565.00,0.0060
1564.00,0.0059
1563.00,0.0059
1562.00,0.0060
1561.00,0.0060
1560.00,0.0060
1559.00,0.0061
1558.00,0.0061
1557.00,0.0059
1556.00,0.0057
1555.00,0.0057
1554.00,0.0058
1553.00,0.0058
1552.00,0.0058
1551.00,0.0058
1550.00,0.0057
1549.00,0.0055
1548.00,0.0054
1547.00,0.0053
1546.00,0.0053
1545.00,0.0053
1544.00,0.0052
1543.00,0.0051
1542.00,0.0050
1541.00,0.0050
1540.00,0.0052
1539.00,0.0053
1538.00,0.0052
1537.00,0.0051
1536.00,0.0050
1535.00,0.0050
1534.00,0.0050
1533.00,0.0050
1532.00,0.0050
1531.00,0.0049
1530.00,0.0049
1529.00,0.0050
1528.00,0.0049
1527.00,0.0048
1526.00,0.0047
1525.00,0.0046
1524.00,0.0045
1523.00,0.0045
1522.00,0.0044
1521.00,0.0045
1520.00,0.0046
1519.00,0.0047
1518.00,0.0047
1517.00,0.0046
1516.00,0.0046
1515.00,0.0046
1514.00,0.0045
1513.00,0.0045
1512.00,0.0044
1511.00,0.0044
1510.00,0.0044
1509.00,0.0045
1508.00,0.0045
1507.00,0.0045
1506.00,0.0045
1505.00,0.0045
1504.00,0.0044
1503.00,0.0043
1502.00,0.0042
1501.00,0.0042
1500.00,0.0042
1499.00,0.0043
1498.00,0.0044
1497.00,0.0045
1496.00,0.0046
1495.00,0.0045
1494.00,0.0043
1493.00,0.0042
1492.00,0.0042
1491.00,0.0042
1490.00,0.0043
1489.00,0.0044
1488.00,0.0044
1487.00,0.0044
1486.00,0.0043
1485.00,0.0042
1484.00,0.0042
1483.00,0.0042
1482.00,0.0042
1481.00,0.0042
1480.00,0.0041
1479.00,0.0041
1478.00,0.0041
1477.00,0.0042
1476.00,0.0042
1475.00,0.0041
1474.00,0.0040
1473.00,0.0040
1472.00,0.0042
1471.00,0.0042
1470.00,0.0043
1469.00,0.0043
1468.00,0.0044
1467.00,0.0043
1466.00,0.0042
1465.00,0.0041
1464.00,0.0041
1463.00,0.0040
1462.00,0.0040
1461.00,0.0039
1460.00,0.0039
1459.00,0.0039
1458.00,0.0039
1457.00,0.0039
1456.00,0.0040
1455.00,0.0041
1454.00,0.0041
1453.00,0.0041
1452.00,0.0041
1451.00,0.0042
1450.00,0.0042
1449.00,0.0043
1448.00,0.0044
1447.00,0.0045
1446.00,0.0045
1445.00,0.0044
1444.00,0.0044
1443.00,0.0044
1442.00,0.0043
1441.00,0.0043
1440.00,0.0043
1439.00,0.0044
1438.00,0.0045
1437.00,0.0046
1436.00,0.0046
1435.00,0.0046
1434.00,0.0045
1433.00,0.0045
1432.00,0.0045
1431.00,0.0044
1430.00,0.0044
1429.00,0.0044
1428.00,0.0043
1427.00,0.0044
1426.00,0.0044
1425.00,0.0045
1424.00,0.0045
1423.00,0.0045
1422.00,0.0045
1421.00,0.0045
1420.00,0.0045
1419.00,0.0045
1418.00,0.0046
1417.00,0.0046
1416.00,0.0046
1415.00,0.0046
1414.00,0.0045
1413.00,0.0044
1412.00,0.0043
1411.00,0.0043
1410.00,0.0042
1409.00,0.0042
1408.00,0.0042
1407.00,0.0042
1406.00,0.0041
1405.00,0.0040
1404.00,0.0039
1403.00,0.0038
1402.00,0.0037
1401.00,0.0037
1400.00,0.0036
1399.00,0.0036
1398.00,0.0035
1397.00,0.0035
1396.00,0.0035
1395.00,0.0034
1394.00,0.0034
1393.00,0.0034
1392.00,0.0034
1391.00,0.0034
1390.00,0.0034
1389.00,0.0034
1388.00,0.0034
1387.00,0.0033
1386.00,0.0032
1385.00,0.0031
1384.00,0.0031
1383.00,0.0030
1382.00,0.0031
1381.00,0.0031
1380.00,0.0032
1379.00,0.0033
1378.00,0.0034
1377.00,0.0034
1376.00,0.0035
1375.00,0.0036
1374.00,0.0037
1373.00,0.0037
1372.00,0.0037
1371.00,0.0037
1370.00,0.0038
1369.00,0.0038
1368.00,0.0038
1367.00,0.0038
1366.00,0.0038
1365.00,0.0038
1364.00,0.0038
1363.00,0.0038
1362.00,0.0039
1361.00,0.0039
1360.00,0.0039
1359.00,0.0039
1358.00,0.0039
1357.00,0.0040
1356.00,0.0041
1355.00,0.0042
1354.00,0.0042
1353.00,0.0041
1352.00,0.0041
1351.00,0.0040
1350.00,0.0039
1349.00,0.0039
1348.00,0.0038
1347.00,0.0038
1346.00,0.0038
1345.00,0.0038
1344.00,0.0038
1343.00,0.0038
1342.00,0.0038
1341.00,0.0039
1340.00,0.0040
1339.00,0.0041
1338.00,0.0041
1337.00,0.0040
1336.00,0.0039
1335.00,0.0039
1334.00,0.0039
1333.00,0.0038
1332.00,0.0038
1331.00,0.0038
1330.00,0.0038
1329.00,0.0038
1328.00,0.0038
1327.00,0.0038
1326.00,0.0037
1325.00,0.0037
1324.00,0.0037
1323.00,0.0038
1322.00,0.0039
1321.00,0.0040
1320.00,0.0041
1319.00,0.0041
1318.00,0.0039
1317.00,0.0038
1316.00,0.0037
1315.00,0.0036
1314.00,0.0037
1313.00,0.0038
1312.00,0.0039
1311.00,0.0040
1310.00,0.0040
1309.00,0.0040
1308.00,0.0039
1307.00,0.0039
1306.00,0.0039
1305.00,0.0039
1304.00,0.0039
1303.00,0.0040
1302.00,0.0040
1301.00,0.0040
1300.00,0.0039
1299.00,0.0038
1298.00,0.0038
1297.00,0.0037
1296.00,0.0036
1295.00,0.0037
1294.00,0.0037
1293.00,0.0038
1292.00,0.0039
1291.00,0.0039
1290.00,0.0040
1289.00,0.0040
1288.00,0.0040
1287.00,0.0039
1286.00,0.0038
1285.00,0.0038
1284.00,0.0038
1283.00,0.0038
1282.00,0.0038
1281.00,0.0038
1280.00,0.0037
1279.00,0.0036
1278.00,0.0036
1277.00,0.0035
1276.00,0.0035
1275.00,0.0036
1274.00,0.0035
1273.00,0.0035
1272.00,0.0034
1271.00,0.0034
1270.00,0.0034
1269.00,0.0034
1268.00,0.0035
1267.00,0.0035
1266.00,0.0036
1265.00,0.0036
1264.00,0.0036
1263.00,0.0035
1262.00,0.0035
1261.00,0.0035
1260.00,0.0036
1259.00,0.0037
1258.00,0.0038
1257.00,0.0039
1256.00,0.0038
1255.00,0.0038
1254.00,0.0039
1253.00,0.0040
1252.00,0.0042
1251.00,0.0042
1250.00,0.0043
1249.00,0.0044
1248.00,0.0045
1247.00,0.0046
1246.00,0.0048
1245.00,0.0049
1244.00,0.0050
1243.00,0.0050
1242.00,0.0051
1241.00,0.0051
1240.00,0.0052
1239.00,0.0053
1238.00,0.0055
1237.00,0.0057
1236.00,0.0059
1235.00,0.0060
1234.00,0.0061
1233.00,0.0061
1232.00,0.0062
1231.00,0.0062
1230.00,0.0063
1229.00,0.0064
1228.00,0.0066
1227.00,0.0067
1226.00,0.0068
1225.00,0.0068
1224.00,0.0069
1223.00,0.0069
1222.00,0.0070
1221.00,0.0072
1220.00,0.0073
1219.00,0.0074
1218.00,0.0075
1217.00,0.0076
1216.00,0.0077
1215.00,0.0078
1214.00,0.0079
1213.00,0.0079
1212.00,0.0079
1211.00,0.0081
1210.00,0.0082
1209.00,0.0083
1208.00,0.0084
1207.00,0.0084
1206.00,0.0083
1205.00,0.0083
1204.00,0.0083
1203.00,0.0084
1202.00,0.0085
1201.00,0.0086
1200.00,0.0087
1199.00,0.0089
1198.00,0.0089
1197.00,0.0089
1196.00,0.0089
1195.00,0.0089
1194.00,0.0090
1193.00,0.0090
1192.00,0.0091
1191.00,0.0091
1190.00,0.0091
1189.00,0.0090
1188.00,0.0090
1187.00,0.0091
1186.00,0.0092
1185.00,0.0093
1184.00,0.0093
1183.00,0.0092
1182.00,0.0091
1181.00,0.0090
1180.00,0.0090
1179.00,0.0089
1178.00,0.0090
1177.00,0.0090
1176.00,0.0091
1175.00,0.0092
1174.00,0.0093
1173.00,0.0094
1172.00,0.0095
1171.00,0.0094
1170.00,0.0093
1169.00,0.0093
1168.00,0.0094
1167.00,0.0095
1166.00,0.0095
1165.00,0.0095
1164.00,0.0095
1163.00,0.0095
1162.00,0.0096
1161.00,0.0097
1160.00,0.0098
1159.00,0.0099
1158.00,0.0099
1157.00,0.0099
1156.00,0.0100
1155.00,0.0101
1154.00,0.0101
1153.00,0.0101
1152.00,0.0101
1151.00,0.0101
1150.00,0.0100
1149.00,0.0101
1148.00,0.0101
1147.00,0.0103
1146.00,0.0104
1145.00,0.0106
1144.00,0.0108
1143.00,0.0110
1142.00,0.0111
1141.00,0.0112
1140.00,0.0112
1139.00,0.0113
1138.00,0.0113
1137.00,0.0114
1136.00,0.0116
1135.00,0.0117
1134.00,0.0119
1133.00,0.0120
1132.00,0.0121
1131.00,0.0122
1130.00,0.0124
1129.00,0.0126
1128.00,0.0128
1127.00,0.0128
1126.00,0.0128
1125.00,0.0127
1124.00,0.0128
1123.00,0.0131
1122.00,0.0136
1121.00,0.0141
1120.00,0.0145
1119.00,0.0147
1118.00,0.0148
1117.00,0.0149
1116.00,0.0150
1115.00,0.0151
1114.00,0.0152
1113.00,0.0152
1112.00,0.0153
1111.00,0.0154
1110.00,0.0157
1109.00,0.0159
1108.00,0.0162
1107.00,0.0163
1106.00,0.0164
1105.00,0.0165
1104.00,0.0167
1103.00,0.0171
1102.00,0.0174
1101.00,0.0176
1100.00,0.0177
1099.00,0.0177
1098.00,0.0177
1097.00,0.0178
1096.00,0.0177
1095.00,0.0177
1094.00,0.0178
1093.00,0.0180
1092.00,0.0182
1091.00,0.0184
1090.00,0.0184
1089.00,0.0183
1088.00,0.0181
1087.00,0.0181
1086.00,0.0182
1085.00,0.0183
1084.00,0.0184
1083.00,0.0185
1082.00,0.0186
1081.00,0.0188
1080.00,0.0191
1079.00,0.0194
1078.00,0.0197
1077.00,0.0199
1076.00,0.0198
1075.00,0.0195
1074.00,0.0192
1073.00,0.0191
1072.00,0.0190
1071.00,0.0190
1070.00,0.0189
1069.00,0.0188
1068.00,0.0188
1067.00,0.0190
1066.00,0.0193
1065.00,0.0197
1064.00,0.0200
1063.00,0.0201
1062.00,0.0200
1061.00,0.0198
1060.00,0.0195
1059.00,0.0194
1058.00,0.0195
1057.00,0.0196
1056.00,0.0198
1055.00,0.0200
1054.00,0.0202
1053.00,0.0204
1052.00,0.0206
1051.00,0.0206
1050.00,0.0206
1049.00,0.0207
1048.00,0.0208
1047.00,0.0209
1046.00,0.0208
1045.00,0.0208
1044.00,0.0208
1043.00,0.0207
1042.00,0.0205
1041.00,0.0203
1040.00,0.0201
1039.00,0.0202
1038.00,0.0203
1037.00,0.0204
1036.00,0.0203
1035.00,0.0200
1034.00,0.0199
1033.00,0.0197
1032.00,0.0197
1031.00,0.0195
1030.00,0.0193
1029.00,0.0191
1028.00,0.0188
1027.00,0.0186
1026.00,0.0185
1025.00,0.0185
1024.00,0.0184
1023.00,0.0183
1022.00,0.0181
1021.00,0.0178
1020.00,0.0176
1019.00,0.0173
1018.00,0.0170
1017.00,0.0169
1016.00,0.0168
1015.00,0.0168
1014.00,0.0169
1013.00,0.0169
1012.00,0.0169
1011.00,0.0169
1010.00,0.0169
1009.00,0.0168
1008.00,0.0167
1007.00,0.0164
1006.00,0.0162
1005.00,0.0160
1004.00,0.0159
1003.00,0.0158
1002.00,0.0157
1001.00,0.0154
1000.00,0.0151
999.00,0.0147
998.00,0.0144
997.00,0.0143
996.00,0.0143
995.00,0.0143
994.00,0.0142
993.00,0.0138
992.00,0.0135
991.00,0.0132
990.00,0.0129
989.00,0.0127
988.00,0.0126
987.00,0.0125
986.00,0.0125
985.00,0.0124
984.00,0.0123
983.00,0.0122
982.00,0.0120
981.00,0.0118
980.00,0.0116
979.00,0.0114
978.00,0.0110
977.00,0.0106
976.00,0.0103
975.00,0.0101
974.00,0.0101
973.00,0.0102
972.00,0.0102
971.00,0.0101
970.00,0.0099
969.00,0.0097
968.00,0.0095
967.00,0.0093
966.00,0.0090
965.00,0.0088
964.00,0.0087
963.00,0.0086
962.00,0.0086
961.00,0.0086
960.00,0.0085
959.00,0.0084
958.00,0.0084
957.00,0.0085
956.00,0.0085
955.00,0.0084
954.00,0.0083
953.00,0.0081
952.00,0.0081
951.00,0.0082
950.00,0.0083
949.00,0.0084
948.00,0.0084
947.00,0.0083
946.00,0.0082
945.00,0.0081
944.00,0.0081
943.00,0.0080
942.00,0.0079
941.00,0.0080
940.00,0.0081
939.00,0.0083
938.00,0.0084
937.00,0.0084
936.00,0.0082
935.00,0.0081
934.00,0.0080
933.00,0.0082
932.00,0.0085
931.00,0.0088
930.00,0.0089
929.00,0.0090
928.00,0.0091
927.00,0.0091
926.00,0.0090
925.00,0.0089
924.00,0.0088
923.00,0.0088
922.00,0.0088
921.00,0.0088
920.00,0.0088
919.00,0.0088
918.00,0.0089
917.00,0.0090
916.00,0.0092
915.00,0.0093
914.00,0.0093
913.00,0.0092
912.00,0.0090
911.00,0.0088
910.00,0.0085
909.00,0.0081
908.00,0.0078
907.00,0.0077
906.00,0.0077
905.00,0.0080
904.00,0.0085
903.00,0.0088
902.00,0.0090
901.00,0.0089
900.00,0.0086
899.00,0.0084
898.00,0.0083
897.00,0.0083
896.00,0.0082
895.00,0.0080
894.00,0.0079
893.00,0.0077
892.00,0.0075
891.00,0.0074
890.00,0.0076
889.00,0.0079
888.00,0.0081
887.00,0.0080
886.00,0.0076
885.00,0.0073
884.00,0.0072
883.00,0.0072
882.00,0.0073
881.00,0.0074
880.00,0.0074
879.00,0.0073
878.00,0.0072
877.00,0.0070
876.00,0.0068
875.00,0.0067
874.00,0.0065
873.00,0.0064
872.00,0.0063
871.00,0.0064
870.00,0.0066
869.00,0.0066
868.00,0.0066
867.00,0.0064
866.00,0.0065
865.00,0.0066
864.00,0.0067
863.00,0.0068
862.00,0.0069
861.00,0.0069
860.00,0.0068
859.00,0.0065
858.00,0.0061
857.00,0.0059
856.00,0.0058
855.00,0.0058
854.00,0.0060
853.00,0.0060
852.00,0.0061
851.00,0.0061
850.00,0.0062
849.00,0.0064
848.00,0.0065
847.00,0.0067
846.00,0.0069
845.00,0.0070
844.00,0.0069
843.00,0.0067
842.00,0.0063
841.00,0.0061
840.00,0.0060
839.00,0.0060
838.00,0.0062
837.00,0.0063
836.00,0.0065
835.00,0.0065
834.00,0.0065
833.00,0.0065
832.00,0.0064
831.00,0.0063
830.00,0.0061
829.00,0.0060
828.00,0.0061
827.00,0.0063
826.00,0.0067
825.00,0.0072
824.00,0.0075
823.00,0.0076
822.00,0.0076
821.00,0.0076
820.00,0.0077
819.00,0.0077
818.00,0.0076
817.00,0.0073
816.00,0.0071
815.00,0.0071
814.00,0.0072
813.00,0.0075
812.00,0.0077
811.00,0.0078
810.00,0.0079
809.00,0.0080
808.00,0.0081
807.00,0.0080
806.00,0.0079
805.00,0.0078
804.00,0.0077
803.00,0.0078
802.00,0.0081
801.00,0.0085
800.00,0.0089
799.00,0.0090
798.00,0.0090
797.00,0.0088
796.00,0.0088
795.00,0.0087
794.00,0.0085
793.00,0.0085
792.00,0.0086
791.00,0.0087
790.00,0.0088
789.00,0.0088
788.00,0.0087
787.00,0.0088
786.00,0.0091
785.00,0.0094
784.00,0.0097
783.00,0.0099
782.00,0.0098
781.00,0.0095
780.00,0.0090
779.00,0.0086
778.00,0.0085
777.00,0.0086
776.00,0.0086
775.00,0.0084
774.00,0.0082
773.00,0.0081
772.00,0.0081
771.00,0.0082
770.00,0.0083
769.00,0.0084
768.00,0.0085
767.00,0.0082
766.00,0.0078
765.00,0.0075
764.00,0.0074
763.00,0.0075
762.00,0.0074
761.00,0.0072
760.00,0.0072
759.00,0.0075
758.00,0.0079
757.00,0.0081
756.00,0.0081
755.00,0.0079
754.00,0.0078
753.00,0.0076
752.00,0.0076
751.00,0.0077
750.00,0.0080
749.00,0.0082
748.00,0.0082
747.00,0.0081
746.00,0.0080
745.00,0.0079
744.00,0.0079
743.00,0.0079
742.00,0.0079
741.00,0.0079
740.00,0.0077
739.00,0.0073
738.00,0.0069
737.00,0.0067
736.00,0.0067
735.00,0.0067
734.00,0.0066
733.00,0.0064
732.00,0.0064
731.00,0.0066
730.00,0.0068
729.00,0.0070
728.00,0.0072
727.00,0.0075
726.00,0.0076
725.00,0.0076
724.00,0.0073
723.00,0.0070
722.00,0.0069
721.00,0.0071
720.00,0.0072
719.00,0.0074
718.00,0.0075
717.00,0.0077
716.00,0.0075
715.00,0.0071
714.00,0.0066
713.00,0.0066
712.00,0.0069
711.00,0.0071
710.00,0.0071
709.00,0.0070
708.00,0.0071
707.00,0.0073
706.00,0.0073
705.00,0.0073
704.00,0.0077
703.00,0.0083
702.00,0.0086
701.00,0.0084
700.00,0.0079
699.00,0.0075
698.00,0.0075
697.00,0.0075
696.00,0.0072
695.00,0.0070
694.00,0.0072
693.00,0.0078
692.00,0.0082
691.00,0.0083
690.00,0.0085
689.00,0.0091
688.00,0.0097
687.00,0.0096
686.00,0.0090
685.00,0.0082
684.00,0.0077
683.00,0.0072
682.00,0.0067
681.00,0.0064
680.00,0.0066
679.00,0.0071
678.00,0.0075
677.00,0.0076
676.00,0.0076
675.00,0.0078
674.00,0.0079
673.00,0.0077
672.00,0.0074
671.00,0.0072
670.00,0.0074
669.00,0.0081
668.00,0.0084
667.00,0.0083
666.00,0.0086
665.00,0.0090
664.00,0.0090
663.00,0.0084
662.00,0.0072
661.00,0.0062
660.00,0.0054
659.00,0.0050
658.00,0.0051
657.00,0.0061
656.00,0.0077
655.00,0.0088
654.00,0.0086
653.00,0.0073
652.00,0.0060
651.00,0.0058
650.00,0.0064
