Created as New Dataset,Monday, April 03 2023
cm-1,A
4000.00,0.0014
3999.00,0.0014
3998.00,0.0014
3997.00,0.0014
3996.00,0.0013
3995.00,0.0013
3994.00,0.0013
3993.00,0.0013
3992.00,0.0013
3991.00,0.0013
3990.00,0.0013
3989.00,0.0013
3988.00,0.0013
3987.00,0.0013
3986.00,0.0013
3985.00,0.0013
3984.00,0.0013
3983.00,0.0013
3982.00,0.0012
3981.00,0.0012
3980.00,0.0012
3979.00,0.0012
3978.00,0.0012
3977.00,0.0012
3976.00,0.0011
3975.00,0.0011
3974.00,0.0011
3973.00,0.0011
3972.00,0.0012
3971.00,0.0012
3970.00,0.0013
3969.00,0.0013
3968.00,0.0013
3967.00,0.0012
3966.00,0.0011
3965.00,0.0010
3964.00,0.0011
3963.00,0.0012
3962.00,0.0013
3961.00,0.0013
3960.00,0.0012
3959.00,0.0011
3958.00,0.0011
3957.00,0.0011
3956.00,0.0011
3955.00,0.0010
3954.00,0.0010
3953.00,0.0009
3952.00,0.0009
3951.00,0.0010
3950.00,0.0011
3949.00,0.0012
3948.00,0.0013
3947.00,0.0013
3946.00,0.0012
3945.00,0.0012
3944.00,0.0011
3943.00,0.0011
3942.00,0.0010
3941.00,0.0010
3940.00,0.0010
3939.00,0.0011
3938.00,0.0011
3937.00,0.0011
3936.00,0.0010
3935.00,0.0010
3934.00,0.0010
3933.00,0.0010
3932.00,0.0010
3931.00,0.0010
3930.00,0.0010
3929.00,0.0010
3928.00,0.0010
3927.00,0.0010
3926.00,0.0011
3925.00,0.0011
3924.00,0.0011
3923.00,0.0011
3922.00,0.0010
3921.00,0.0010
3920.00,0.0009
3919.00,0.0009
3918.00,0.0010
3917.00,0.0010
3916.00,0.0011
3915.00,0.0011
3914.00,0.0010
3913.00,0.0010
3912.00,0.0010
3911.00,0.0010
3910.00,0.0010
3909.00,0.0010
3908.00,0.0009
3907.00,0.0008
3906.00,0.0007
3905.00,0.0006
3904.00,0.0006
3903.00,0.0005
3902.00,0.0005
3901.00,0.0006
3900.00,0.0007
3899.00,0.0008
3898.00,0.0008
3897.00,0.0008
3896.00,0.0008
3895.00,0.0008
3894.00,0.0009
3893.00,0.0009
3892.00,0.0009
3891.00,0.0008
3890.00,0.0006
3889.00,0.0004
3888.00,0.0004
3887.00,0.0004
3886.00,0.0005
3885.00,0.0005
3884.00,0.0004
3883.00,0.0004
3882.00,0.0005
3881.00,0.0006
3880.00,0.0006
3879.00,0.0006
3878.00,0.0006
3877.00,0.0007
3876.00,0.0008
3875.00,0.0008
3874.00,0.0007
3873.00,0.0006
3872.00,0.0005
3871.00,0.0006
3870.00,0.0006
3869.00,0.0006
3868.00,0.0004
3867.00,0.0004
3866.00,0.0005
3865.00,0.0007
3864.00,0.0008
3863.00,0.0009
3862.00,0.0010
3861.00,0.0009
3860.00,0.0009
3859.00,0.0007
3858.00,0.0005
3857.00,0.0002
3856.00,-0.0000
3855.00,-0.0001
3854.00,0.0000
3853.00,0.0001
3852.00,0.0001
3851.00,0.0001
3850.00,0.0003
3849.00,0.0006
3848.00,0.0007
3847.00,0.0008
3846.00,0.0008
3845.00,0.0008
3844.00,0.0007
3843.00,0.0006
3842.00,0.0005
3841.00,0.0005
3840.00,0.0005
3839.00,0.0006
3838.00,0.0006
3837.00,0.0006
3836.00,0.0005
3835.00,0.0005
3834.00,0.0005
3833.00,0.0006
3832.00,0.0007
3831.00,0.0008
3830.00,0.0008
3829.00,0.0008
3828.00,0.0009
3827.00,0.0008
3826.00,0.0007
3825.00,0.0006
3824.00,0.0006
3823.00,0.0007
3822.00,0.0008
3821.00,0.0007
3820.00,0.0005
3819.00,0.0003
3818.00,0.0004
3817.00,0.0006
3816.00,0.0008
3815.00,0.0009
3814.00,0.0009
3813.00,0.0009
3812.00,0.0009
3811.00,0.0008
3810.00,0.0007
3809.00,0.0006
3808.00,0.0006
3807.00,0.0007
3806.00,0.0007
3805.00,0.0006
3804.00,0.0007
3803.00,0.0008
3802.00,0.0009
3801.00,0.0009
3800.00,0.0008
3799.00,0.0007
3798.00,0.0007
3797.00,0.0008
3796.00,0.0009
3795.00,0.0009
3794.00,0.0009
3793.00,0.0009
3792.00,0.0010
3791.00,0.0010
3790.00,0.0010
3789.00,0.0011
3788.00,0.0011
3787.00,0.0011
3786.00,0.0012
3785.00,0.0012
3784.00,0.0012
3783.00,0.0011
3782.00,0.0011
3781.00,0.0010
3780.00,0.0010
3779.00,0.0010
3778.00,0.0009
3777.00,0.0009
3776.00,0.0010
3775.00,0.0010
3774.00,0.0009
3773.00,0.0009
3772.00,0.0008
3771.00,0.0008
3770.00,0.0008
3769.00,0.0007
3768.00,0.0007
3767.00,0.0007
3766.00,0.0009
3765.00,0.0009
3764.00,0.0009
3763.00,0.0009
3762.00,0.0009
3761.00,0.0009
3760.00,0.0009
3759.00,0.0008
3758.00,0.0007
3757.00,0.0006
3756.00,0.0005
3755.00,0.0004
3754.00,0.0002
3753.00,0.0001
3752.00,0.0001
3751.00,0.0002
3750.00,0.0002
3749.00,0.0002
3748.00,0.0001
3747.00,0.0002
3746.00,0.0003
3745.00,0.0004
3744.00,0.0003
3743.00,0.0001
3742.00,0.0001
3741.00,0.0003
3740.00,0.0005
3739.00,0.0006
3738.00,0.0006
3737.00,0.0006
3736.00,0.0006
3735.00,0.0005
3734.00,0.0004
3733.00,0.0004
3732.00,0.0005
3731.00,0.0005
3730.00,0.0005
3729.00,0.0006
3728.00,0.0007
3727.00,0.0007
3726.00,0.0007
3725.00,0.0007
3724.00,0.0006
3723.00,0.0006
3722.00,0.0007
3721.00,0.0007
3720.00,0.0008
3719.00,0.0008
3718.00,0.0008
3717.00,0.0007
3716.00,0.0006
3715.00,0.0005
3714.00,0.0005
3713.00,0.0006
3712.00,0.0007
3711.00,0.0007
3710.00,0.0006
3709.00,0.0005
3708.00,0.0005
3707.00,0.0007
3706.00,0.0008
3705.00,0.0009
3704.00,0.0009
3703.00,0.0008
3702.00,0.0008
3701.00,0.0008
3700.00,0.0007
3699.00,0.0008
3698.00,0.0008
3697.00,0.0008
3696.00,0.0007
3695.00,0.0006
3694.00,0.0005
3693.00,0.0004
3692.00,0.0004
3691.00,0.0005
3690.00,0.0007
3689.00,0.0008
3688.00,0.0008
3687.00,0.0007
3686.00,0.0007
3685.00,0.0008
3684.00,0.0009
3683.00,0.0009
3682.00,0.0008
3681.00,0.0006
3680.00,0.0003
3679.00,0.0000
3678.00,-0.0002
3677.00,-0.0003
3676.00,-0.0002
3675.00,-0.0003
3674.00,-0.0004
3673.00,-0.0005
3672.00,-0.0003
3671.00,0.0001
3670.00,0.0003
3669.00,0.0004
3668.00,0.0004
3667.00,0.0004
3666.00,0.0005
3665.00,0.0006
3664.00,0.0006
3663.00,0.0007
3662.00,0.0007
3661.00,0.0007
3660.00,0.0007
3659.00,0.0007
3658.00,0.0007
3657.00,0.0007
3656.00,0.0006
3655.00,0.0005
3654.00,0.0004
3653.00,0.0004
3652.00,0.0003
3651.00,0.0001
3650.00,0.0001
3649.00,0.0001
3648.00,0.0001
3647.00,0.0002
3646.00,0.0002
3645.00,0.0004
3644.00,0.0006
3643.00,0.0007
3642.00,0.0008
3641.00,0.0008
3640.00,0.0008
3639.00,0.0008
3638.00,0.0008
3637.00,0.0008
3636.00,0.0008
3635.00,0.0008
3634.00,0.0008
3633.00,0.0006
3632.00,0.0005
3631.00,0.0004
3630.00,0.0005
3629.00,0.0006
3628.00,0.0006
3627.00,0.0005
3626.00,0.0005
3625.00,0.0006
3624.00,0.0007
3623.00,0.0006
3622.00,0.0006
3621.00,0.0006
3620.00,0.0007
3619.00,0.0007
3618.00,0.0007
3617.00,0.0006
3616.00,0.0006
3615.00,0.0007
3614.00,0.0007
3613.00,0.0007
3612.00,0.0007
3611.00,0.0007
3610.00,0.0008
3609.00,0.0010
3608.00,0.0011
3607.00,0.0010
3606.00,0.0010
3605.00,0.0010
3604.00,0.0010
3603.00,0.0011
3602.00,0.0012
3601.00,0.0013
3600.00,0.0013
3599.00,0.0013
3598.00,0.0011
3597.00,0.0011
3596.00,0.0010
3595.00,0.0010
3594.00,0.0010
3593.00,0.0010
3592.00,0.0009
3591.00,0.0008
3590.00,0.0008
3589.00,0.0008
3588.00,0.0009
3587.00,0.0009
3586.00,0.0009
3585.00,0.0010
3584.00,0.0011
3583.00,0.0012
3582.00,0.0012
3581.00,0.0013
3580.00,0.0013
3579.00,0.0012
3578.00,0.0012
3577.00,0.0013
3576.00,0.0013
3575.00,0.0013
3574.00,0.0013
3573.00,0.0013
3572.00,0.0012
3571.00,0.0011
3570.00,0.0010
3569.00,0.0009
3568.00,0.0010
3567.00,0.0011
3566.00,0.0011
3565.00,0.0011
3564.00,0.0010
3563.00,0.0011
3562.00,0.0012
3561.00,0.0014
3560.00,0.0015
3559.00,0.0015
3558.00,0.0015
3557.00,0.0015
3556.00,0.0015
3555.00,0.0015
3554.00,0.0016
3553.00,0.0016
3552.00,0.0016
3551.00,0.0016
3550.00,0.0017
3549.00,0.0017
3548.00,0.0017
3547.00,0.0017
3546.00,0.0018
3545.00,0.0018
3544.00,0.0018
3543.00,0.0018
3542.00,0.0018
3541.00,0.0018
3540.00,0.0017
3539.00,0.0016
3538.00,0.0015
3537.00,0.0014
3536.00,0.0014
3535.00,0.0015
3534.00,0.0016
3533.00,0.0016
3532.00,0.0017
3531.00,0.0017
3530.00,0.0017
3529.00,0.0016
3528.00,0.0015
3527.00,0.0015
3526.00,0.0015
3525.00,0.0016
3524.00,0.0017
3523.00,0.0018
3522.00,0.0018
3521.00,0.0017
3520.00,0.0016
3519.00,0.0015
3518.00,0.0014
3517.00,0.0014
3516.00,0.0014
3515.00,0.0014
3514.00,0.0015
3513.00,0.0016
3512.00,0.0017
3511.00,0.0018
3510.00,0.0018
3509.00,0.0017
3508.00,0.0017
3507.00,0.0016
3506.00,0.0016
3505.00,0.0016
3504.00,0.0017
3503.00,0.0018
3502.00,0.0018
3501.00,0.0017
3500.00,0.0017
3499.00,0.0018
3498.00,0.0018
3497.00,0.0019
3496.00,0.0019
3495.00,0.0019
3494.00,0.0018
3493.00,0.0018
3492.00,0.0017
3491.00,0.0017
3490.00,0.0016
3489.00,0.0016
3488.00,0.0016
3487.00,0.0016
3486.00,0.0016
3485.00,0.0016
3484.00,0.0016
3483.00,0.0016
3482.00,0.0016
3481.00,0.0017
3480.00,0.0017
3479.00,0.0017
3478.00,0.0017
3477.00,0.0017
3476.00,0.0018
3475.00,0.0018
3474.00,0.0019
3473.00,0.0019
3472.00,0.0019
3471.00,0.0019
3470.00,0.0019
3469.00,0.0019
3468.00,0.0018
3467.00,0.0019
3466.00,0.0019
3465.00,0.0020
3464.00,0.0020
3463.00,0.0019
3462.00,0.0018
3461.00,0.0017
3460.00,0.0017
3459.00,0.0018
3458.00,0.0018
3457.00,0.0018
3456.00,0.0018
3455.00,0.0017
3454.00,0.0016
3453.00,0.0017
3452.00,0.0017
3451.00,0.0018
3450.00,0.0018
3449.00,0.0019
3448.00,0.0019
3447.00,0.0019
3446.00,0.0018
3445.00,0.0019
3444.00,0.0019
3443.00,0.0019
3442.00,0.0018
3441.00,0.0017
3440.00,0.0016
3439.00,0.0016
3438.00,0.0016
3437.00,0.0016
3436.00,0.0016
3435.00,0.0016
3434.00,0.0015
3433.00,0.0016
3432.00,0.0016
3431.00,0.0017
3430.00,0.0017
3429.00,0.0017
3428.00,0.0017
3427.00,0.0017
3426.00,0.0017
3425.00,0.0018
3424.00,0.0019
3423.00,0.0019
3422.00,0.0019
3421.00,0.0019
3420.00,0.0018
3419.00,0.0018
3418.00,0.0018
3417.00,0.0018
3416.00,0.0018
3415.00,0.0017
3414.00,0.0017
3413.00,0.0017
3412.00,0.0017
3411.00,0.0018
3410.00,0.0018
3409.00,0.0018
3408.00,0.0019
3407.00,0.0019
3406.00,0.0019
3405.00,0.0018
3404.00,0.0017
3403.00,0.0017
3402.00,0.0017
3401.00,0.0017
3400.00,0.0018
3399.00,0.0019
3398.00,0.0019
3397.00,0.0018
3396.00,0.0017
3395.00,0.0017
3394.00,0.0016
3393.00,0.0017
3392.00,0.0017
3391.00,0.0018
3390.00,0.0019
3389.00,0.0019
3388.00,0.0019
3387.00,0.0019
3386.00,0.0018
3385.00,0.0018
3384.00,0.0018
3383.00,0.0018
3382.00,0.0019
3381.00,0.0019
3380.00,0.0019
3379.00,0.0019
3378.00,0.0019
3377.00,0.0019
3376.00,0.0019
3375.00,0.0018
3374.00,0.0018
3373.00,0.0017
3372.00,0.0017
3371.00,0.0017
3370.00,0.0017
3369.00,0.0017
3368.00,0.0018
3367.00,0.0018
3366.00,0.0017
3365.00,0.0016
3364.00,0.0016
3363.00,0.0016
3362.00,0.0018
3361.00,0.0019
3360.00,0.0020
3359.00,0.0020
3358.00,0.0019
3357.00,0.0019
3356.00,0.0018
3355.00,0.0019
3354.00,0.0019
3353.00,0.0019
3352.00,0.0019
3351.00,0.0019
3350.00,0.0019
3349.00,0.0019
3348.00,0.0019
3347.00,0.0019
3346.00,0.0018
3345.00,0.0018
3344.00,0.0018
3343.00,0.0017
3342.00,0.0017
3341.00,0.0018
3340.00,0.0018
3339.00,0.0019
3338.00,0.0019
3337.00,0.0019
3336.00,0.0019
3335.00,0.0018
3334.00,0.0018
3333.00,0.0018
3332.00,0.0018
3331.00,0.0017
3330.00,0.0017
3329.00,0.0016
3328.00,0.0017
3327.00,0.0017
3326.00,0.0018
3325.00,0.0019
3324.00,0.0019
3323.00,0.0020
3322.00,0.0019
3321.00,0.0019
3320.00,0.0019
3319.00,0.0019
3318.00,0.0019
3317.00,0.0019
3316.00,0.0019
3315.00,0.0018
3314.00,0.0018
3313.00,0.0018
3312.00,0.0017
3311.00,0.0017
3310.00,0.0017
3309.00,0.0018
3308.00,0.0019
3307.00,0.0019
3306.00,0.0019
3305.00,0.0019
3304.00,0.0018
3303.00,0.0018
3302.00,0.0018
3301.00,0.0018
3300.00,0.0018
3299.00,0.0018
3298.00,0.0018
3297.00,0.0018
3296.00,0.0018
3295.00,0.0019
3294.00,0.0019
3293.00,0.0019
3292.00,0.0018
3291.00,0.0018
3290.00,0.0018
3289.00,0.0018
3288.00,0.0018
3287.00,0.0019
3286.00,0.0019
3285.00,0.0019
3284.00,0.0019
3283.00,0.0019
3282.00,0.0018
3281.00,0.0018
3280.00,0.0018
3279.00,0.0019
3278.00,0.0019
3277.00,0.0019
3276.00,0.0019
3275.00,0.0018
3274.00,0.0018
3273.00,0.0018
3272.00,0.0018
3271.00,0.0019
3270.00,0.0020
3269.00,0.0020
3268.00,0.0020
3267.00,0.0020
3266.00,0.0019
3265.00,0.0018
3264.00,0.0017
3263.00,0.0017
3262.00,0.0017
3261.00,0.0018
3260.00,0.0019
3259.00,0.0019
3258.00,0.0019
3257.00,0.0018
3256.00,0.0017
3255.00,0.0017
3254.00,0.0017
3253.00,0.0017
3252.00,0.0017
3251.00,0.0017
3250.00,0.0017
3249.00,0.0017
3248.00,0.0017
3247.00,0.0017
3246.00,0.0018
3245.00,0.0018
3244.00,0.0018
3243.00,0.0018
3242.00,0.0018
3241.00,0.0018
3240.00,0.0018
3239.00,0.0018
3238.00,0.0019
3237.00,0.0019
3236.00,0.0020
3235.00,0.0021
3234.00,0.0021
3233.00,0.0020
3232.00,0.0020
3231.00,0.0019
3230.00,0.0018
3229.00,0.0017
3228.00,0.0016
3227.00,0.0016
3226.00,0.0017
3225.00,0.0017
3224.00,0.0017
3223.00,0.0018
3222.00,0.0018
3221.00,0.0018
3220.00,0.0017
3219.00,0.0017
3218.00,0.0017
3217.00,0.0017
3216.00,0.0017
3215.00,0.0018
3214.00,0.0018
3213.00,0.0018
3212.00,0.0017
3211.00,0.0016
3210.00,0.0016
3209.00,0.0016
3208.00,0.0016
3207.00,0.0016
3206.00,0.0017
3205.00,0.0017
3204.00,0.0018
3203.00,0.0019
3202.00,0.0018
3201.00,0.0018
3200.00,0.0018
3199.00,0.0018
3198.00,0.0018
3197.00,0.0018
3196.00,0.0018
3195.00,0.0018
3194.00,0.0018
3193.00,0.0018
3192.00,0.0018
3191.00,0.0017
3190.00,0.0017
3189.00,0.0016
3188.00,0.0015
3187.00,0.0015
3186.00,0.0015
3185.00,0.0015
3184.00,0.0016
3183.00,0.0016
3182.00,0.0017
3181.00,0.0018
3180.00,0.0018
3179.00,0.0018
3178.00,0.0017
3177.00,0.0016
3176.00,0.0016
3175.00,0.0016
3174.00,0.0016
3173.00,0.0016
3172.00,0.0016
3171.00,0.0016
3170.00,0.0016
3169.00,0.0016
3168.00,0.0016
3167.00,0.0016
3166.00,0.0016
3165.00,0.0017
3164.00,0.0018
3163.00,0.0018
3162.00,0.0018
3161.00,0.0017
3160.00,0.0016
3159.00,0.0015
3158.00,0.0014
3157.00,0.0014
3156.00,0.0014
3155.00,0.0015
3154.00,0.0015
3153.00,0.0016
3152.00,0.0016
3151.00,0.0016
3150.00,0.0016
3149.00,0.0015
3148.00,0.0015
3147.00,0.0015
3146.00,0.0015
3145.00,0.0015
3144.00,0.0015
3143.00,0.0015
3142.00,0.0015
3141.00,0.0015
3140.00,0.0015
3139.00,0.0015
3138.00,0.0015
3137.00,0.0016
3136.00,0.0016
3135.00,0.0016
3134.00,0.0015
3133.00,0.0015
3132.00,0.0015
3131.00,0.0015
3130.00,0.0016
3129.00,0.0016
3128.00,0.0016
3127.00,0.0016
3126.00,0.0016
3125.00,0.0016
3124.00,0.0016
3123.00,0.0015
3122.00,0.0015
3121.00,0.0015
3120.00,0.0015
3119.00,0.0015
3118.00,0.0016
3117.00,0.0016
3116.00,0.0015
3115.00,0.0015
3114.00,0.0015
3113.00,0.0015
3112.00,0.0015
3111.00,0.0015
3110.00,0.0015
3109.00,0.0015
3108.00,0.0015
3107.00,0.0015
3106.00,0.0016
3105.00,0.0016
3104.00,0.0016
3103.00,0.0015
3102.00,0.0015
3101.00,0.0014
3100.00,0.0014
3099.00,0.0014
3098.00,0.0014
3097.00,0.0014
3096.00,0.0015
3095.00,0.0016
3094.00,0.0017
3093.00,0.0017
3092.00,0.0017
3091.00,0.0016
3090.00,0.0016
3089.00,0.0015
3088.00,0.0014
3087.00,0.0013
3086.00,0.0014
3085.00,0.0015
3084.00,0.0015
3083.00,0.0015
3082.00,0.0016
3081.00,0.0016
3080.00,0.0016
3079.00,0.0016
3078.00,0.0016
3077.00,0.0016
3076.00,0.0016
3075.00,0.0016
3074.00,0.0016
3073.00,0.0017
3072.00,0.0017
3071.00,0.0017
3070.00,0.0017
3069.00,0.0017
3068.00,0.0017
3067.00,0.0018
3066.00,0.0017
3065.00,0.0017
3064.00,0.0016
3063.00,0.0016
3062.00,0.0016
3061.00,0.0016
3060.00,0.0016
3059.00,0.0016
3058.00,0.0016
3057.00,0.0016
3056.00,0.0016
3055.00,0.0016
3054.00,0.0016
3053.00,0.0016
3052.00,0.0017
3051.00,0.0017
3050.00,0.0018
3049.00,0.0018
3048.00,0.0018
3047.00,0.0018
3046.00,0.0017
3045.00,0.0017
3044.00,0.0016
3043.00,0.0016
3042.00,0.0015
3041.00,0.0014
3040.00,0.0015
3039.00,0.0015
3038.00,0.0016
3037.00,0.0017
3036.00,0.0017
3035.00,0.0018
3034.00,0.0018
3033.00,0.0018
3032.00,0.0018
3031.00,0.0017
3030.00,0.0017
3029.00,0.0016
3028.00,0.0016
3027.00,0.0016
3026.00,0.0017
3025.00,0.0017
3024.00,0.0018
3023.00,0.0018
3022.00,0.0018
3021.00,0.0018
3020.00,0.0018
3019.00,0.0017
3018.00,0.0017
3017.00,0.0017
3016.00,0.0017
3015.00,0.0018
3014.00,0.0018
3013.00,0.0017
3012.00,0.0018
3011.00,0.0018
3010.00,0.0017
3009.00,0.0016
3008.00,0.0015
3007.00,0.0014
3006.00,0.0013
3005.00,0.0013
3004.00,0.0012
3003.00,0.0011
3002.00,0.0009
3001.00,0.0007
3000.00,0.0006
2999.00,0.0004
2998.00,0.0003
2997.00,0.0002
2996.00,0.0001
2995.00,0.0001
2994.00,0.0000
2993.00,-0.0001
2992.00,-0.0001
2991.00,-0.0001
2990.00,-0.0002
2989.00,-0.0002
2988.00,-0.0003
2987.00,-0.0004
2986.00,-0.0007
2985.00,-0.0009
2984.00,-0.0012
2983.00,-0.0014
2982.00,-0.0015
2981.00,-0.0014
2980.00,-0.0011
2979.00,-0.0008
2978.00,-0.0005
2977.00,-0.0002
2976.00,0.0001
2975.00,0.0004
2974.00,0.0005
2973.00,0.0006
2972.00,0.0007
2971.00,0.0010
2970.00,0.0014
2969.00,0.0019
2968.00,0.0024
2967.00,0.0029
2966.00,0.0032
2965.00,0.0036
2964.00,0.0039
2963.00,0.0044
2962.00,0.0048
2961.00,0.0051
2960.00,0.0053
2959.00,0.0055
2958.00,0.0057
2957.00,0.0059
2956.00,0.0061
2955.00,0.0062
2954.00,0.0064
2953.00,0.0065
2952.00,0.0066
2951.00,0.0066
2950.00,0.0067
2949.00,0.0068
2948.00,0.0069
2947.00,0.0071
2946.00,0.0073
2945.00,0.0077
2944.00,0.0081
2943.00,0.0086
2942.00,0.0092
2941.00,0.0098
2940.00,0.0104
2939.00,0.0110
2938.00,0.0116
2937.00,0.0124
2936.00,0.0132
2935.00,0.0141
2934.00,0.0150
2933.00,0.0158
2932.00,0.0167
2931.00,0.0176
2930.00,0.0184
2929.00,0.0192
2928.00,0.0200
2927.00,0.0206
2926.00,0.0211
2925.00,0.0214
2924.00,0.0215
2923.00,0.0215
2922.00,0.0212
2921.00,0.0207
2920.00,0.0201
2919.00,0.0193
2918.00,0.0185
2917.00,0.0176
2916.00,0.0167
2915.00,0.0158
2914.00,0.0150
2913.00,0.0141
2912.00,0.0134
2911.00,0.0128
2910.00,0.0122
2909.00,0.0117
2908.00,0.0112
2907.00,0.0107
2906.00,0.0104
2905.00,0.0100
2904.00,0.0097
2903.00,0.0093
2902.00,0.0090
2901.00,0.0088
2900.00,0.0085
2899.00,0.0082
2898.00,0.0079
2897.00,0.0076
2896.00,0.0074
2895.00,0.0072
2894.00,0.0069
2893.00,0.0067
2892.00,0.0064
2891.00,0.0062
2890.00,0.0059
2889.00,0.0057
2888.00,0.0056
2887.00,0.0054
2886.00,0.0053
2885.00,0.0051
2884.00,0.0049
2883.00,0.0048
2882.00,0.0048
2881.00,0.0048
2880.00,0.0049
2879.00,0.0050
2878.00,0.0051
2877.00,0.0053
2876.00,0.0054
2875.00,0.0055
2874.00,0.0056
2873.00,0.0057
2872.00,0.0058
2871.00,0.0059
2870.00,0.0060
2869.00,0.0061
2868.00,0.0062
2867.00,0.0064
2866.00,0.0067
2865.00,0.0071
2864.00,0.0075
2863.00,0.0081
2862.00,0.0087
2861.00,0.0094
2860.00,0.0102
2859.00,0.0111
2858.00,0.0119
2857.00,0.0127
2856.00,0.0134
2855.00,0.0138
2854.00,0.0140
2853.00,0.0139
2852.00,0.0136
2851.00,0.0132
2850.00,0.0125
2849.00,0.0116
2848.00,0.0107
2847.00,0.0098
2846.00,0.0089
2845.00,0.0080
2844.00,0.0073
2843.00,0.0067
2842.00,0.0061
2841.00,0.0056
2840.00,0.0051
2839.00,0.0047
2838.00,0.0043
2837.00,0.0041
2836.00,0.0040
2835.00,0.0039
2834.00,0.0037
2833.00,0.0036
2832.00,0.0034
2831.00,0.0032
2830.00,0.0031
2829.00,0.0030
2828.00,0.0029
2827.00,0.0029
2826.00,0.0028
2825.00,0.0027
2824.00,0.0027
2823.00,0.0026
2822.00,0.0025
2821.00,0.0024
2820.00,0.0023
2819.00,0.0022
2818.00,0.0021
2817.00,0.0021
2816.00,0.0021
2815.00,0.0020
2814.00,0.0020
2813.00,0.0020
2812.00,0.0019
2811.00,0.0019
2810.00,0.0019
2809.00,0.0018
2808.00,0.0018
2807.00,0.0018
2806.00,0.0018
2805.00,0.0018
2804.00,0.0018
2803.00,0.0018
2802.00,0.0017
2801.00,0.0017
2800.00,0.0017
2799.00,0.0017
2798.00,0.0017
2797.00,0.0016
2796.00,0.0016
2795.00,0.0016
2794.00,0.0016
2793.00,0.0016
2792.00,0.0016
2791.00,0.0016
2790.00,0.0016
2789.00,0.0016
2788.00,0.0016
2787.00,0.0015
2786.00,0.0015
2785.00,0.0015
2784.00,0.0015
2783.00,0.0014
2782.00,0.0013
2781.00,0.0012
2780.00,0.0012
2779.00,0.0011
2778.00,0.0012
2777.00,0.0012
2776.00,0.0013
2775.00,0.0013
2774.00,0.0013
2773.00,0.0013
2772.00,0.0013
2771.00,0.0012
2770.00,0.0011
2769.00,0.0011
2768.00,0.0010
2767.00,0.0010
2766.00,0.0010
2765.00,0.0010
2764.00,0.0011
2763.00,0.0011
2762.00,0.0011
2761.00,0.0011
2760.00,0.0011
2759.00,0.0011
2758.00,0.0011
2757.00,0.0010
2756.00,0.0010
2755.00,0.0010
2754.00,0.0010
2753.00,0.0010
2752.00,0.0010
2751.00,0.0011
2750.00,0.0011
2749.00,0.0011
2748.00,0.0011
2747.00,0.0011
2746.00,0.0011
2745.00,0.0011
2744.00,0.0011
2743.00,0.0011
2742.00,0.0011
2741.00,0.0011
2740.00,0.0011
2739.00,0.0010
2738.00,0.0010
2737.00,0.0009
2736.00,0.0009
2735.00,0.0009
2734.00,0.0010
2733.00,0.0010
2732.00,0.0011
2731.00,0.0011
2730.00,0.0011
2729.00,0.0010
2728.00,0.0010
2727.00,0.0010
2726.00,0.0010
2725.00,0.0010
2724.00,0.0010
2723.00,0.0009
2722.00,0.0009
2721.00,0.0009
2720.00,0.0009
2719.00,0.0009
2718.00,0.0009
2717.00,0.0010
2716.00,0.0010
2715.00,0.0010
2714.00,0.0010
2713.00,0.0009
2712.00,0.0009
2711.00,0.0009
2710.00,0.0009
2709.00,0.0009
2708.00,0.0009
2707.00,0.0009
2706.00,0.0009
2705.00,0.0009
2704.00,0.0008
2703.00,0.0008
2702.00,0.0008
2701.00,0.0008
2700.00,0.0008
2699.00,0.0009
2698.00,0.0009
2697.00,0.0009
2696.00,0.0009
2695.00,0.0009
2694.00,0.0009
2693.00,0.0009
2692.00,0.0009
2691.00,0.0009
2690.00,0.0009
2689.00,0.0009
2688.00,0.0009
2687.00,0.0009
2686.00,0.0009
2685.00,0.0009
2684.00,0.0009
2683.00,0.0009
2682.00,0.0009
2681.00,0.0009
2680.00,0.0009
2679.00,0.0008
2678.00,0.0008
2677.00,0.0008
2676.00,0.0007
2675.00,0.0007
2674.00,0.0008
2673.00,0.0008
2672.00,0.0008
2671.00,0.0008
2670.00,0.0007
2669.00,0.0007
2668.00,0.0007
2667.00,0.0007
2666.00,0.0007
2665.00,0.0007
2664.00,0.0008
2663.00,0.0008
2662.00,0.0008
2661.00,0.0009
2660.00,0.0009
2659.00,0.0009
2658.00,0.0009
2657.00,0.0008
2656.00,0.0008
2655.00,0.0008
2654.00,0.0008
2653.00,0.0008
2652.00,0.0008
2651.00,0.0008
2650.00,0.0008
2649.00,0.0008
2648.00,0.0008
2647.00,0.0007
2646.00,0.0007
2645.00,0.0007
2644.00,0.0007
2643.00,0.0008
2642.00,0.0008
2641.00,0.0008
2640.00,0.0008
2639.00,0.0008
2638.00,0.0007
2637.00,0.0007
2636.00,0.0007
2635.00,0.0007
2634.00,0.0007
2633.00,0.0008
2632.00,0.0008
2631.00,0.0008
2630.00,0.0007
2629.00,0.0006
2628.00,0.0006
2627.00,0.0005
2626.00,0.0006
2625.00,0.0007
2624.00,0.0008
2623.00,0.0008
2622.00,0.0009
2621.00,0.0009
2620.00,0.0009
2619.00,0.0008
2618.00,0.0008
2617.00,0.0008
2616.00,0.0007
2615.00,0.0007
2614.00,0.0007
2613.00,0.0007
2612.00,0.0008
2611.00,0.0008
2610.00,0.0008
2609.00,0.0008
2608.00,0.0007
2607.00,0.0007
2606.00,0.0007
2605.00,0.0008
2604.00,0.0008
2603.00,0.0008
2602.00,0.0008
2601.00,0.0008
2600.00,0.0007
2599.00,0.0007
2598.00,0.0007
2597.00,0.0006
2596.00,0.0005
2595.00,0.0005
2594.00,0.0005
2593.00,0.0006
2592.00,0.0007
2591.00,0.0007
2590.00,0.0007
2589.00,0.0007
2588.00,0.0007
2587.00,0.0007
2586.00,0.0006
2585.00,0.0005
2584.00,0.0005
2583.00,0.0005
2582.00,0.0006
2581.00,0.0007
2580.00,0.0007
2579.00,0.0008
2578.00,0.0007
2577.00,0.0007
2576.00,0.0006
2575.00,0.0005
2574.00,0.0005
2573.00,0.0006
2572.00,0.0006
2571.00,0.0006
2570.00,0.0005
2569.00,0.0005
2568.00,0.0005
2567.00,0.0006
2566.00,0.0007
2565.00,0.0007
2564.00,0.0007
2563.00,0.0007
2562.00,0.0007
2561.00,0.0007
2560.00,0.0007
2559.00,0.0007
2558.00,0.0007
2557.00,0.0008
2556.00,0.0008
2555.00,0.0008
2554.00,0.0008
2553.00,0.0007
2552.00,0.0006
2551.00,0.0005
2550.00,0.0004
2549.00,0.0003
2548.00,0.0002
2547.00,0.0002
2546.00,0.0002
2545.00,0.0003
2544.00,0.0004
2543.00,0.0004
2542.00,0.0003
2541.00,0.0002
2540.00,0.0001
2539.00,0.0001
2538.00,0.0001
2537.00,0.0001
2536.00,0.0002
2535.00,0.0003
2534.00,0.0003
2533.00,0.0004
2532.00,0.0004
2531.00,0.0003
2530.00,0.0003
2529.00,0.0002
2528.00,0.0002
2527.00,0.0001
2526.00,0.0001
2525.00,0.0000
2524.00,-0.0000
2523.00,0.0000
2522.00,0.0001
2521.00,0.0002
2520.00,0.0002
2519.00,0.0003
2518.00,0.0004
2517.00,0.0004
2516.00,0.0005
2515.00,0.0004
2514.00,0.0004
2513.00,0.0003
2512.00,0.0003
2511.00,0.0003
2510.00,0.0004
2509.00,0.0004
2508.00,0.0004
2507.00,0.0004
2506.00,0.0003
2505.00,0.0003
2504.00,0.0003
2503.00,0.0003
2502.00,0.0004
2501.00,0.0004
2500.00,0.0005
2499.00,0.0005
2498.00,0.0004
2497.00,0.0003
2496.00,0.0003
2495.00,0.0004
2494.00,0.0004
2493.00,0.0005
2492.00,0.0005
2491.00,0.0005
2490.00,0.0005
2489.00,0.0005
2488.00,0.0006
2487.00,0.0006
2486.00,0.0005
2485.00,0.0004
2484.00,0.0003
2483.00,0.0003
2482.00,0.0003
2481.00,0.0004
2480.00,0.0004
2479.00,0.0004
2478.00,0.0004
2477.00,0.0003
2476.00,0.0003
2475.00,0.0003
2474.00,0.0003
2473.00,0.0003
2472.00,0.0003
2471.00,0.0003
2470.00,0.0003
2469.00,0.0002
2468.00,0.0002
2467.00,0.0001
2466.00,0.0001
2465.00,0.0001
2464.00,0.0001
2463.00,0.0001
2462.00,0.0001
2461.00,0.0001
2460.00,0.0002
2459.00,0.0003
2458.00,0.0003
2457.00,0.0004
2456.00,0.0004
2455.00,0.0004
2454.00,0.0005
2453.00,0.0005
2452.00,0.0006
2451.00,0.0005
2450.00,0.0005
2449.00,0.0004
2448.00,0.0003
2447.00,0.0003
2446.00,0.0002
2445.00,0.0002
2444.00,0.0001
2443.00,0.0001
2442.00,0.0001
2441.00,0.0001
2440.00,0.0002
2439.00,0.0002
2438.00,0.0001
2437.00,0.0001
2436.00,0.0001
2435.00,0.0001
2434.00,0.0001
2433.00,0.0001
2432.00,0.0001
2431.00,0.0001
2430.00,0.0002
2429.00,0.0002
2428.00,0.0002
2427.00,0.0001
2426.00,0.0001
2425.00,0.0001
2424.00,0.0001
2423.00,0.0001
2422.00,0.0001
2421.00,0.0001
2420.00,0.0001
2419.00,0.0001
2418.00,0.0001
2417.00,0.0000
2416.00,0.0000
2415.00,0.0000
2414.00,0.0001
2413.00,0.0001
2412.00,0.0001
2411.00,0.0001
2410.00,0.0001
2409.00,0.0001
2408.00,0.0001
2407.00,0.0001
2406.00,0.0001
2405.00,0.0001
2404.00,0.0001
2403.00,0.0001
2402.00,0.0001
2401.00,0.0000
2400.00,0.0000
2399.00,-0.0000
2398.00,-0.0000
2397.00,-0.0001
2396.00,-0.0001
2395.00,-0.0001
2394.00,-0.0001
2393.00,-0.0001
2392.00,-0.0001
2391.00,-0.0001
2390.00,-0.0001
2389.00,-0.0001
2388.00,-0.0001
2387.00,-0.0001
2386.00,-0.0001
2385.00,-0.0001
2384.00,-0.0002
2383.00,-0.0003
2382.00,-0.0003
2381.00,-0.0002
2380.00,-0.0001
2379.00,0.0000
2378.00,0.0000
2377.00,-0.0001
2376.00,-0.0001
2375.00,-0.0002
2374.00,-0.0002
2373.00,-0.0002
2372.00,-0.0002
2371.00,-0.0002
2370.00,-0.0005
2369.00,-0.0008
2368.00,-0.0011
2367.00,-0.0011
2366.00,-0.0007
2365.00,-0.0002
2364.00,-0.0000
2363.00,-0.0000
2362.00,-0.0001
2361.00,-0.0001
2360.00,0.0000
2359.00,0.0001
2358.00,0.0001
2357.00,0.0001
2356.00,-0.0001
2355.00,-0.0002
2354.00,-0.0002
2353.00,-0.0002
2352.00,-0.0002
2351.00,-0.0002
2350.00,-0.0003
2349.00,-0.0004
2348.00,-0.0004
2347.00,-0.0005
2346.00,-0.0005
2345.00,-0.0004
2344.00,-0.0002
2343.00,0.0000
2342.00,0.0001
2341.00,0.0002
2340.00,0.0001
2339.00,-0.0000
2338.00,-0.0002
2337.00,-0.0003
2336.00,-0.0002
2335.00,-0.0001
2334.00,-0.0001
2333.00,-0.0000
2332.00,-0.0001
2331.00,-0.0001
2330.00,-0.0002
2329.00,-0.0003
2328.00,-0.0003
2327.00,-0.0002
2326.00,-0.0001
2325.00,-0.0001
2324.00,-0.0002
2323.00,-0.0002
2322.00,-0.0002
2321.00,-0.0002
2320.00,-0.0002
2319.00,-0.0003
2318.00,-0.0003
2317.00,-0.0004
2316.00,-0.0004
2315.00,-0.0003
2314.00,-0.0003
2313.00,-0.0003
2312.00,-0.0003
2311.00,-0.0002
2310.00,-0.0001
2309.00,-0.0000
2308.00,-0.0000
2307.00,-0.0000
2306.00,-0.0000
2305.00,-0.0001
2304.00,-0.0001
2303.00,-0.0003
2302.00,-0.0004
2301.00,-0.0004
2300.00,-0.0004
2299.00,-0.0003
2298.00,-0.0003
2297.00,-0.0003
2296.00,-0.0003
2295.00,-0.0003
2294.00,-0.0003
2293.00,-0.0001
2292.00,0.0001
2291.00,0.0002
2290.00,0.0002
2289.00,0.0001
2288.00,0.0001
2287.00,0.0001
2286.00,0.0002
2285.00,0.0002
2284.00,0.0003
2283.00,0.0003
2282.00,0.0003
2281.00,0.0003
2280.00,0.0002
2279.00,0.0003
2278.00,0.0003
2277.00,0.0003
2276.00,0.0002
2275.00,0.0001
2274.00,-0.0000
2273.00,-0.0002
2272.00,-0.0002
2271.00,-0.0002
2270.00,-0.0001
2269.00,-0.0001
2268.00,-0.0001
2267.00,-0.0001
2266.00,-0.0001
2265.00,-0.0000
2264.00,0.0001
2263.00,0.0001
2262.00,0.0001
2261.00,0.0001
2260.00,0.0002
2259.00,0.0001
2258.00,0.0000
2257.00,-0.0001
2256.00,-0.0002
2255.00,-0.0002
2254.00,-0.0002
2253.00,-0.0002
2252.00,-0.0002
2251.00,-0.0002
2250.00,-0.0003
2249.00,-0.0003
2248.00,-0.0003
2247.00,-0.0002
2246.00,0.0000
2245.00,0.0002
2244.00,0.0003
2243.00,0.0003
2242.00,0.0002
2241.00,0.0001
2240.00,-0.0000
2239.00,-0.0002
2238.00,-0.0003
2237.00,-0.0003
2236.00,-0.0003
2235.00,-0.0002
2234.00,-0.0001
2233.00,-0.0001
2232.00,-0.0002
2231.00,-0.0004
2230.00,-0.0005
2229.00,-0.0006
2228.00,-0.0005
2227.00,-0.0004
2226.00,-0.0002
2225.00,-0.0001
2224.00,-0.0001
2223.00,-0.0002
2222.00,-0.0004
2221.00,-0.0005
2220.00,-0.0005
2219.00,-0.0005
2218.00,-0.0004
2217.00,-0.0003
2216.00,-0.0001
2215.00,0.0001
2214.00,0.0001
2213.00,0.0001
2212.00,-0.0001
2211.00,-0.0003
2210.00,-0.0004
2209.00,-0.0003
2208.00,-0.0001
2207.00,-0.0000
2206.00,0.0000
2205.00,-0.0000
2204.00,-0.0001
2203.00,-0.0003
2202.00,-0.0004
2201.00,-0.0005
2200.00,-0.0006
2199.00,-0.0006
2198.00,-0.0005
2197.00,-0.0004
2196.00,-0.0004
2195.00,-0.0005
2194.00,-0.0007
2193.00,-0.0007
2192.00,-0.0008
2191.00,-0.0009
2190.00,-0.0010
2189.00,-0.0011
2188.00,-0.0010
2187.00,-0.0007
2186.00,-0.0003
2185.00,-0.0000
2184.00,0.0000
2183.00,-0.0002
2182.00,-0.0003
2181.00,-0.0003
2180.00,-0.0002
2179.00,-0.0001
2178.00,-0.0000
2177.00,-0.0000
2176.00,-0.0001
2175.00,-0.0002
2174.00,-0.0003
2173.00,-0.0003
2172.00,-0.0003
2171.00,-0.0002
2170.00,0.0000
2169.00,0.0001
2168.00,0.0001
2167.00,0.0001
2166.00,0.0002
2165.00,0.0004
2164.00,0.0006
2163.00,0.0007
2162.00,0.0006
2161.00,0.0004
2160.00,0.0001
2159.00,-0.0003
2158.00,-0.0007
2157.00,-0.0009
2156.00,-0.0009
2155.00,-0.0008
2154.00,-0.0007
2153.00,-0.0005
2152.00,-0.0006
2151.00,-0.0009
2150.00,-0.0011
2149.00,-0.0012
2148.00,-0.0011
2147.00,-0.0008
2146.00,-0.0004
2145.00,-0.0001
2144.00,0.0001
2143.00,0.0002
2142.00,0.0003
2141.00,0.0003
2140.00,0.0003
2139.00,0.0001
2138.00,-0.0002
2137.00,-0.0004
2136.00,-0.0006
2135.00,-0.0007
2134.00,-0.0007
2133.00,-0.0006
2132.00,-0.0005
2131.00,-0.0005
2130.00,-0.0005
2129.00,-0.0004
2128.00,-0.0002
2127.00,-0.0001
2126.00,-0.0001
2125.00,-0.0001
2124.00,-0.0002
2123.00,-0.0003
2122.00,-0.0004
2121.00,-0.0005
2120.00,-0.0005
2119.00,-0.0006
2118.00,-0.0006
2117.00,-0.0006
2116.00,-0.0006
2115.00,-0.0007
2114.00,-0.0008
2113.00,-0.0009
2112.00,-0.0008
2111.00,-0.0007
2110.00,-0.0005
2109.00,-0.0003
2108.00,-0.0002
2107.00,-0.0001
2106.00,-0.0001
2105.00,-0.0002
2104.00,-0.0003
2103.00,-0.0003
2102.00,-0.0003
2101.00,-0.0003
2100.00,-0.0004
2099.00,-0.0006
2098.00,-0.0007
2097.00,-0.0007
2096.00,-0.0007
2095.00,-0.0005
2094.00,-0.0004
2093.00,-0.0004
2092.00,-0.0004
2091.00,-0.0005
2090.00,-0.0005
2089.00,-0.0005
2088.00,-0.0005
2087.00,-0.0005
2086.00,-0.0005
2085.00,-0.0004
2084.00,-0.0003
2083.00,-0.0002
2082.00,-0.0002
2081.00,-0.0002
2080.00,-0.0002
2079.00,-0.0002
2078.00,-0.0003
2077.00,-0.0003
2076.00,-0.0002
2075.00,-0.0001
2074.00,-0.0001
2073.00,-0.0001
2072.00,-0.0001
2071.00,0.0000
2070.00,0.0000
2069.00,-0.0001
2068.00,-0.0004
2067.00,-0.0006
2066.00,-0.0006
2065.00,-0.0004
2064.00,-0.0002
2063.00,0.0000
2062.00,0.0001
2061.00,0.0000
2060.00,-0.0002
2059.00,-0.0004
2058.00,-0.0005
2057.00,-0.0005
2056.00,-0.0005
2055.00,-0.0006
2054.00,-0.0005
2053.00,-0.0004
2052.00,-0.0001
2051.00,-0.0001
2050.00,-0.0002
2049.00,-0.0003
2048.00,-0.0004
2047.00,-0.0004
2046.00,-0.0003
2045.00,-0.0001
2044.00,0.0002
2043.00,0.0004
2042.00,0.0005
2041.00,0.0003
2040.00,-0.0000
2039.00,-0.0003
2038.00,-0.0002
2037.00,0.0001
2036.00,0.0005
2035.00,0.0006
2034.00,0.0004
2033.00,0.0003
2032.00,0.0003
2031.00,0.0004
2030.00,0.0005
2029.00,0.0003
2028.00,0.0001
2027.00,-0.0001
2026.00,-0.0002
2025.00,-0.0004
2024.00,-0.0006
2023.00,-0.0008
2022.00,-0.0009
2021.00,-0.0009
2020.00,-0.0009
2019.00,-0.0009
2018.00,-0.0011
2017.00,-0.0012
2016.00,-0.0012
2015.00,-0.0009
2014.00,-0.0007
2013.00,-0.0006
2012.00,-0.0007
2011.00,-0.0006
2010.00,-0.0005
2009.00,-0.0004
2008.00,-0.0003
2007.00,-0.0004
2006.00,-0.0005
2005.00,-0.0007
2004.00,-0.0008
2003.00,-0.0007
2002.00,-0.0004
2001.00,-0.0001
2000.00,0.0001
1999.00,-0.0001
1998.00,-0.0002
1997.00,-0.0003
1996.00,-0.0002
1995.00,-0.0000
1994.00,0.0001
1993.00,0.0002
1992.00,0.0002
1991.00,0.0001
1990.00,-0.0002
1989.00,-0.0003
1988.00,-0.0004
1987.00,-0.0004
1986.00,-0.0003
1985.00,-0.0002
1984.00,-0.0001
1983.00,-0.0001
1982.00,-0.0002
1981.00,-0.0003
1980.00,-0.0006
1979.00,-0.0009
1978.00,-0.0012
1977.00,-0.0014
1976.00,-0.0013
1975.00,-0.0009
1974.00,-0.0005
1973.00,-0.0004
1972.00,-0.0005
1971.00,-0.0006
1970.00,-0.0007
1969.00,-0.0005
1968.00,-0.0004
1967.00,-0.0005
1966.00,-0.0007
1965.00,-0.0009
1964.00,-0.0009
1963.00,-0.0008
1962.00,-0.0007
1961.00,-0.0006
1960.00,-0.0004
1959.00,-0.0003
1958.00,-0.0003
1957.00,-0.0005
1956.00,-0.0007
1955.00,-0.0009
1954.00,-0.0008
1953.00,-0.0006
1952.00,-0.0005
1951.00,-0.0005
1950.00,-0.0006
1949.00,-0.0008
1948.00,-0.0007
1947.00,-0.0006
1946.00,-0.0006
1945.00,-0.0007
1944.00,-0.0009
1943.00,-0.0011
1942.00,-0.0011
1941.00,-0.0010
1940.00,-0.0010
1939.00,-0.0011
1938.00,-0.0011
1937.00,-0.0011
1936.00,-0.0011
1935.00,-0.0011
1934.00,-0.0011
1933.00,-0.0011
1932.00,-0.0010
1931.00,-0.0009
1930.00,-0.0006
1929.00,-0.0004
1928.00,-0.0002
1927.00,-0.0002
1926.00,-0.0003
1925.00,-0.0004
1924.00,-0.0005
1923.00,-0.0006
1922.00,-0.0006
1921.00,-0.0007
1920.00,-0.0008
1919.00,-0.0009
1918.00,-0.0010
1917.00,-0.0010
1916.00,-0.0009
1915.00,-0.0008
1914.00,-0.0008
1913.00,-0.0008
1912.00,-0.0008
1911.00,-0.0008
1910.00,-0.0008
1909.00,-0.0009
1908.00,-0.0010
1907.00,-0.0010
1906.00,-0.0010
1905.00,-0.0008
1904.00,-0.0007
1903.00,-0.0007
1902.00,-0.0007
1901.00,-0.0008
1900.00,-0.0008
1899.00,-0.0008
1898.00,-0.0007
1897.00,-0.0007
1896.00,-0.0008
1895.00,-0.0010
1894.00,-0.0010
1893.00,-0.0010
1892.00,-0.0009
1891.00,-0.0009
1890.00,-0.0008
1889.00,-0.0008
1888.00,-0.0008
1887.00,-0.0009
1886.00,-0.0009
1885.00,-0.0009
1884.00,-0.0009
1883.00,-0.0009
1882.00,-0.0009
1881.00,-0.0009
1880.00,-0.0009
1879.00,-0.0009
1878.00,-0.0010
1877.00,-0.0010
1876.00,-0.0010
1875.00,-0.0009
1874.00,-0.0008
1873.00,-0.0007
1872.00,-0.0007
1871.00,-0.0007
1870.00,-0.0007
1869.00,-0.0007
1868.00,-0.0007
1867.00,-0.0007
1866.00,-0.0008
1865.00,-0.0008
1864.00,-0.0008
1863.00,-0.0009
1862.00,-0.0010
1861.00,-0.0011
1860.00,-0.0011
1859.00,-0.0011
1858.00,-0.0011
1857.00,-0.0010
1856.00,-0.0009
1855.00,-0.0008
1854.00,-0.0009
1853.00,-0.0009
1852.00,-0.0009
1851.00,-0.0009
1850.00,-0.0009
1849.00,-0.0009
1848.00,-0.0009
1847.00,-0.0009
1846.00,-0.0009
1845.00,-0.0008
1844.00,-0.0008
1843.00,-0.0008
1842.00,-0.0009
1841.00,-0.0008
1840.00,-0.0008
1839.00,-0.0009
1838.00,-0.0009
1837.00,-0.0009
1836.00,-0.0009
1835.00,-0.0009
1834.00,-0.0010
1833.00,-0.0010
1832.00,-0.0009
1831.00,-0.0009
1830.00,-0.0008
1829.00,-0.0008
1828.00,-0.0009
1827.00,-0.0009
1826.00,-0.0009
1825.00,-0.0010
1824.00,-0.0010
1823.00,-0.0010
1822.00,-0.0010
1821.00,-0.0010
1820.00,-0.0010
1819.00,-0.0010
1818.00,-0.0011
1817.00,-0.0011
1816.00,-0.0011
1815.00,-0.0011
1814.00,-0.0011
1813.00,-0.0011
1812.00,-0.0011
1811.00,-0.0010
1810.00,-0.0010
1809.00,-0.0010
1808.00,-0.0009
1807.00,-0.0009
1806.00,-0.0010
1805.00,-0.0010
1804.00,-0.0010
1803.00,-0.0010
1802.00,-0.0011
1801.00,-0.0010
1800.00,-0.0010
1799.00,-0.0010
1798.00,-0.0009
1797.00,-0.0009
1796.00,-0.0009
1795.00,-0.0010
1794.00,-0.0010
1793.00,-0.0010
1792.00,-0.0009
1791.00,-0.0008
1790.00,-0.0009
1789.00,-0.0009
1788.00,-0.0009
1787.00,-0.0009
1786.00,-0.0008
1785.00,-0.0008
1784.00,-0.0008
1783.00,-0.0008
1782.00,-0.0008
1781.00,-0.0008
1780.00,-0.0009
1779.00,-0.0009
1778.00,-0.0009
1777.00,-0.0008
1776.00,-0.0008
1775.00,-0.0007
1774.00,-0.0007
1773.00,-0.0007
1772.00,-0.0008
1771.00,-0.0008
1770.00,-0.0008
1769.00,-0.0007
1768.00,-0.0006
1767.00,-0.0005
1766.00,-0.0004
1765.00,-0.0003
1764.00,-0.0002
1763.00,-0.0001
1762.00,0.0000
1761.00,0.0002
1760.00,0.0004
1759.00,0.0007
1758.00,0.0010
1757.00,0.0013
1756.00,0.0018
1755.00,0.0022
1754.00,0.0027
1753.00,0.0031
1752.00,0.0034
1751.00,0.0038
1750.00,0.0042
1749.00,0.0047
1748.00,0.0051
1747.00,0.0054
1746.00,0.0056
1745.00,0.0057
1744.00,0.0058
1743.00,0.0057
1742.00,0.0056
1741.00,0.0054
1740.00,0.0052
1739.00,0.0049
1738.00,0.0046
1737.00,0.0044
1736.00,0.0041
1735.00,0.0036
1734.00,0.0031
1733.00,0.0027
1732.00,0.0024
1731.00,0.0023
1730.00,0.0022
1729.00,0.0021
1728.00,0.0019
1727.00,0.0018
1726.00,0.0018
1725.00,0.0017
1724.00,0.0017
1723.00,0.0018
1722.00,0.0018
1721.00,0.0018
1720.00,0.0018
1719.00,0.0018
1718.00,0.0019
1717.00,0.0021
1716.00,0.0023
1715.00,0.0025
1714.00,0.0027
1713.00,0.0028
1712.00,0.0029
1711.00,0.0028
1710.00,0.0027
1709.00,0.0026
1708.00,0.0025
1707.00,0.0023
1706.00,0.0020
1705.00,0.0018
1704.00,0.0016
1703.00,0.0015
1702.00,0.0014
1701.00,0.0011
1700.00,0.0007
1699.00,0.0005
1698.00,0.0005
1697.00,0.0005
1696.00,0.0005
1695.00,0.0004
1694.00,0.0003
1693.00,0.0003
1692.00,0.0003
1691.00,0.0003
1690.00,0.0002
1689.00,0.0002
1688.00,0.0002
1687.00,0.0001
1686.00,-0.0000
1685.00,-0.0002
1684.00,-0.0003
1683.00,-0.0004
1682.00,-0.0003
1681.00,-0.0003
1680.00,-0.0003
1679.00,-0.0003
1678.00,-0.0002
1677.00,-0.0000
1676.00,0.0001
1675.00,0.0000
1674.00,-0.0000
1673.00,-0.0001
1672.00,-0.0002
1671.00,-0.0002
1670.00,-0.0002
1669.00,-0.0002
1668.00,-0.0002
1667.00,-0.0003
1666.00,-0.0003
1665.00,-0.0003
1664.00,-0.0003
1663.00,-0.0004
1662.00,-0.0004
1661.00,-0.0003
1660.00,-0.0002
1659.00,-0.0001
1658.00,0.0000
1657.00,-0.0000
1656.00,-0.0001
1655.00,-0.0004
1654.00,-0.0005
1653.00,-0.0005
1652.00,-0.0005
1651.00,-0.0005
1650.00,-0.0004
1649.00,-0.0004
1648.00,-0.0005
1647.00,-0.0005
1646.00,-0.0005
1645.00,-0.0005
1644.00,-0.0004
1643.00,-0.0004
1642.00,-0.0004
1641.00,-0.0005
1640.00,-0.0006
1639.00,-0.0006
1638.00,-0.0007
1637.00,-0.0007
1636.00,-0.0006
1635.00,-0.0006
1634.00,-0.0008
1633.00,-0.0009
1632.00,-0.0010
1631.00,-0.0011
1630.00,-0.0012
1629.00,-0.0012
1628.00,-0.0012
1627.00,-0.0012
1626.00,-0.0012
1625.00,-0.0011
1624.00,-0.0011
1623.00,-0.0011
1622.00,-0.0012
1621.00,-0.0013
1620.00,-0.0013
1619.00,-0.0013
1618.00,-0.0013
1617.00,-0.0014
1616.00,-0.0015
1615.00,-0.0015
1614.00,-0.0015
1613.00,-0.0015
1612.00,-0.0016
1611.00,-0.0016
1610.00,-0.0016
1609.00,-0.0017
1608.00,-0.0017
1607.00,-0.0017
1606.00,-0.0017
1605.00,-0.0017
1604.00,-0.0017
1603.00,-0.0017
1602.00,-0.0018
1601.00,-0.0019
1600.00,-0.0020
1599.00,-0.0020
1598.00,-0.0020
1597.00,-0.0019
1596.00,-0.0018
1595.00,-0.0018
1594.00,-0.0017
1593.00,-0.0018
1592.00,-0.0018
1591.00,-0.0019
1590.00,-0.0019
1589.00,-0.0019
1588.00,-0.0018
1587.00,-0.0018
1586.00,-0.0017
1585.00,-0.0018
1584.00,-0.0018
1583.00,-0.0018
1582.00,-0.0018
1581.00,-0.0019
1580.00,-0.0019
1579.00,-0.0018
1578.00,-0.0016
1577.00,-0.0015
1576.00,-0.0016
1575.00,-0.0018
1574.00,-0.0019
1573.00,-0.0019
1572.00,-0.0019
1571.00,-0.0018
1570.00,-0.0018
1569.00,-0.0018
1568.00,-0.0018
1567.00,-0.0017
1566.00,-0.0017
1565.00,-0.0017
1564.00,-0.0017
1563.00,-0.0017
1562.00,-0.0017
1561.00,-0.0017
1560.00,-0.0016
1559.00,-0.0014
1558.00,-0.0015
1557.00,-0.0017
1556.00,-0.0017
1555.00,-0.0017
1554.00,-0.0016
1553.00,-0.0015
1552.00,-0.0014
1551.00,-0.0015
1550.00,-0.0015
1549.00,-0.0015
1548.00,-0.0016
1547.00,-0.0016
1546.00,-0.0017
1545.00,-0.0017
1544.00,-0.0018
1543.00,-0.0019
1542.00,-0.0019
1541.00,-0.0018
1540.00,-0.0018
1539.00,-0.0018
1538.00,-0.0019
1537.00,-0.0019
1536.00,-0.0019
1535.00,-0.0018
1534.00,-0.0018
1533.00,-0.0017
1532.00,-0.0018
1531.00,-0.0017
1530.00,-0.0017
1529.00,-0.0016
1528.00,-0.0016
1527.00,-0.0017
1526.00,-0.0018
1525.00,-0.0019
1524.00,-0.0020
1523.00,-0.0020
1522.00,-0.0020
1521.00,-0.0019
1520.00,-0.0018
1519.00,-0.0017
1518.00,-0.0017
1517.00,-0.0017
1516.00,-0.0018
1515.00,-0.0019
1514.00,-0.0019
1513.00,-0.0019
1512.00,-0.0020
1511.00,-0.0021
1510.00,-0.0021
1509.00,-0.0022
1508.00,-0.0021
1507.00,-0.0020
1506.00,-0.0019
1505.00,-0.0020
1504.00,-0.0019
1503.00,-0.0019
1502.00,-0.0020
1501.00,-0.0020
1500.00,-0.0020
1499.00,-0.0019
1498.00,-0.0018
1497.00,-0.0017
1496.00,-0.0017
1495.00,-0.0018
1494.00,-0.0020
1493.00,-0.0021
1492.00,-0.0022
1491.00,-0.0022
1490.00,-0.0022
1489.00,-0.0021
1488.00,-0.0020
1487.00,-0.0020
1486.00,-0.0020
1485.00,-0.0020
1484.00,-0.0021
1483.00,-0.0021
1482.00,-0.0021
1481.00,-0.0020
1480.00,-0.0020
1479.00,-0.0020
1478.00,-0.0020
1477.00,-0.0019
1476.00,-0.0019
1475.00,-0.0018
1474.00,-0.0016
1473.00,-0.0012
1472.00,-0.0006
1471.00,-0.0001
1470.00,0.0004
1469.00,0.0008
1468.00,0.0011
1467.00,0.0012
1466.00,0.0012
1465.00,0.0011
1464.00,0.0009
1463.00,0.0008
1462.00,0.0007
1461.00,0.0006
1460.00,0.0005
1459.00,0.0004
1458.00,0.0004
1457.00,0.0004
1456.00,0.0003
1455.00,0.0002
1454.00,0.0002
1453.00,0.0001
1452.00,0.0000
1451.00,-0.0000
1450.00,-0.0001
1449.00,-0.0002
1448.00,-0.0002
1447.00,-0.0002
1446.00,-0.0002
1445.00,-0.0002
1444.00,-0.0002
1443.00,-0.0003
1442.00,-0.0004
1441.00,-0.0004
1440.00,-0.0004
1439.00,-0.0004
1438.00,-0.0004
1437.00,-0.0004
1436.00,-0.0005
1435.00,-0.0006
1434.00,-0.0007
1433.00,-0.0008
1432.00,-0.0009
1431.00,-0.0010
1430.00,-0.0011
1429.00,-0.0012
1428.00,-0.0013
1427.00,-0.0013
1426.00,-0.0013
1425.00,-0.0014
1424.00,-0.0014
1423.00,-0.0014
1422.00,-0.0014
1421.00,-0.0013
1420.00,-0.0013
1419.00,-0.0013
1418.00,-0.0013
1417.00,-0.0012
1416.00,-0.0012
1415.00,-0.0012
1414.00,-0.0013
1413.00,-0.0014
1412.00,-0.0016
1411.00,-0.0017
1410.00,-0.0018
1409.00,-0.0018
1408.00,-0.0019
1407.00,-0.0019
1406.00,-0.0020
1405.00,-0.0021
1404.00,-0.0022
1403.00,-0.0023
1402.00,-0.0024
1401.00,-0.0025
1400.00,-0.0027
1399.00,-0.0028
1398.00,-0.0029
1397.00,-0.0029
1396.00,-0.0029
1395.00,-0.0030
1394.00,-0.0030
1393.00,-0.0030
1392.00,-0.0030
1391.00,-0.0030
1390.00,-0.0030
1389.00,-0.0029
1388.00,-0.0029
1387.00,-0.0029
1386.00,-0.0028
1385.00,-0.0028
1384.00,-0.0027
1383.00,-0.0027
1382.00,-0.0026
1381.00,-0.0024
1380.00,-0.0023
1379.00,-0.0022
1378.00,-0.0021
1377.00,-0.0021
1376.00,-0.0021
1375.00,-0.0021
1374.00,-0.0021
1373.00,-0.0021
1372.00,-0.0021
1371.00,-0.0021
1370.00,-0.0021
1369.00,-0.0021
1368.00,-0.0021
1367.00,-0.0020
1366.00,-0.0020
1365.00,-0.0021
1364.00,-0.0022
1363.00,-0.0022
1362.00,-0.0022
1361.00,-0.0021
1360.00,-0.0021
1359.00,-0.0020
1358.00,-0.0020
1357.00,-0.0019
1356.00,-0.0018
1355.00,-0.0018
1354.00,-0.0017
1353.00,-0.0017
1352.00,-0.0017
1351.00,-0.0018
1350.00,-0.0019
1349.00,-0.0019
1348.00,-0.0019
1347.00,-0.0019
1346.00,-0.0019
1345.00,-0.0020
1344.00,-0.0020
1343.00,-0.0021
1342.00,-0.0021
1341.00,-0.0021
1340.00,-0.0020
1339.00,-0.0019
1338.00,-0.0019
1337.00,-0.0019
1336.00,-0.0020
1335.00,-0.0020
1334.00,-0.0020
1333.00,-0.0020
1332.00,-0.0020
1331.00,-0.0020
1330.00,-0.0020
1329.00,-0.0020
1328.00,-0.0020
1327.00,-0.0020
1326.00,-0.0020
1325.00,-0.0020
1324.00,-0.0020
1323.00,-0.0019
1322.00,-0.0018
1321.00,-0.0017
1320.00,-0.0017
1319.00,-0.0017
1318.00,-0.0018
1317.00,-0.0019
1316.00,-0.0020
1315.00,-0.0020
1314.00,-0.0020
1313.00,-0.0019
1312.00,-0.0017
1311.00,-0.0016
1310.00,-0.0015
1309.00,-0.0015
1308.00,-0.0015
1307.00,-0.0016
1306.00,-0.0016
1305.00,-0.0016
1304.00,-0.0015
1303.00,-0.0014
1302.00,-0.0013
1301.00,-0.0013
1300.00,-0.0014
1299.00,-0.0014
1298.00,-0.0015
1297.00,-0.0016
1296.00,-0.0017
1295.00,-0.0017
1294.00,-0.0016
1293.00,-0.0016
1292.00,-0.0015
1291.00,-0.0015
1290.00,-0.0014
1289.00,-0.0014
1288.00,-0.0014
1287.00,-0.0014
1286.00,-0.0014
1285.00,-0.0014
1284.00,-0.0014
1283.00,-0.0014
1282.00,-0.0014
1281.00,-0.0014
1280.00,-0.0015
1279.00,-0.0016
1278.00,-0.0016
1277.00,-0.0017
1276.00,-0.0017
1275.00,-0.0017
1274.00,-0.0018
1273.00,-0.0018
1272.00,-0.0019
1271.00,-0.0019
1270.00,-0.0019
1269.00,-0.0019
1268.00,-0.0019
1267.00,-0.0019
1266.00,-0.0019
1265.00,-0.0018
1264.00,-0.0019
1263.00,-0.0019
1262.00,-0.0020
1261.00,-0.0020
1260.00,-0.0020
1259.00,-0.0019
1258.00,-0.0019
1257.00,-0.0019
1256.00,-0.0020
1255.00,-0.0021
1254.00,-0.0021
1253.00,-0.0020
1252.00,-0.0019
1251.00,-0.0019
1250.00,-0.0020
1249.00,-0.0020
1248.00,-0.0020
1247.00,-0.0019
1246.00,-0.0018
1245.00,-0.0017
1244.00,-0.0016
1243.00,-0.0016
1242.00,-0.0017
1241.00,-0.0018
1240.00,-0.0018
1239.00,-0.0018
1238.00,-0.0017
1237.00,-0.0016
1236.00,-0.0015
1235.00,-0.0015
1234.00,-0.0015
1233.00,-0.0015
1232.00,-0.0015
1231.00,-0.0015
1230.00,-0.0015
1229.00,-0.0015
1228.00,-0.0014
1227.00,-0.0014
1226.00,-0.0014
1225.00,-0.0014
1224.00,-0.0015
1223.00,-0.0015
1222.00,-0.0014
1221.00,-0.0014
1220.00,-0.0013
1219.00,-0.0013
1218.00,-0.0014
1217.00,-0.0014
1216.00,-0.0014
1215.00,-0.0014
1214.00,-0.0014
1213.00,-0.0014
1212.00,-0.0013
1211.00,-0.0012
1210.00,-0.0011
1209.00,-0.0010
1208.00,-0.0010
1207.00,-0.0011
1206.00,-0.0011
1205.00,-0.0012
1204.00,-0.0012
1203.00,-0.0012
1202.00,-0.0011
1201.00,-0.0011
1200.00,-0.0011
1199.00,-0.0011
1198.00,-0.0011
1197.00,-0.0011
1196.00,-0.0011
1195.00,-0.0011
1194.00,-0.0011
1193.00,-0.0010
1192.00,-0.0009
1191.00,-0.0009
1190.00,-0.0009
1189.00,-0.0010
1188.00,-0.0011
1187.00,-0.0011
1186.00,-0.0011
1185.00,-0.0010
1184.00,-0.0010
1183.00,-0.0009
1182.00,-0.0009
1181.00,-0.0010
1180.00,-0.0010
1179.00,-0.0010
1178.00,-0.0010
1177.00,-0.0010
1176.00,-0.0010
1175.00,-0.0009
1174.00,-0.0008
1173.00,-0.0007
1172.00,-0.0007
1171.00,-0.0008
1170.00,-0.0008
1169.00,-0.0008
1168.00,-0.0008
1167.00,-0.0008
1166.00,-0.0009
1165.00,-0.0009
1164.00,-0.0010
1163.00,-0.0010
1162.00,-0.0011
1161.00,-0.0011
1160.00,-0.0011
1159.00,-0.0012
1158.00,-0.0012
1157.00,-0.0013
1156.00,-0.0013
1155.00,-0.0012
1154.00,-0.0011
1153.00,-0.0010
1152.00,-0.0011
1151.00,-0.0013
1150.00,-0.0015
1149.00,-0.0017
1148.00,-0.0017
1147.00,-0.0017
1146.00,-0.0017
1145.00,-0.0017
1144.00,-0.0017
1143.00,-0.0017
1142.00,-0.0017
1141.00,-0.0017
1140.00,-0.0019
1139.00,-0.0020
1138.00,-0.0022
1137.00,-0.0022
1136.00,-0.0023
1135.00,-0.0022
1134.00,-0.0021
1133.00,-0.0021
1132.00,-0.0021
1131.00,-0.0022
1130.00,-0.0022
1129.00,-0.0021
1128.00,-0.0019
1127.00,-0.0020
1126.00,-0.0022
1125.00,-0.0024
1124.00,-0.0024
1123.00,-0.0021
1122.00,-0.0018
1121.00,-0.0015
1120.00,-0.0013
1119.00,-0.0013
1118.00,-0.0014
1117.00,-0.0015
1116.00,-0.0014
1115.00,-0.0013
1114.00,-0.0013
1113.00,-0.0013
1112.00,-0.0014
1111.00,-0.0014
1110.00,-0.0015
1109.00,-0.0015
1108.00,-0.0016
1107.00,-0.0018
1106.00,-0.0020
1105.00,-0.0021
1104.00,-0.0022
1103.00,-0.0021
1102.00,-0.0020
1101.00,-0.0019
1100.00,-0.0019
1099.00,-0.0020
1098.00,-0.0020
1097.00,-0.0021
1096.00,-0.0021
1095.00,-0.0023
1094.00,-0.0024
1093.00,-0.0024
1092.00,-0.0024
1091.00,-0.0023
1090.00,-0.0024
1089.00,-0.0027
1088.00,-0.0030
1087.00,-0.0031
1086.00,-0.0032
1085.00,-0.0031
1084.00,-0.0030
1083.00,-0.0029
1082.00,-0.0028
1081.00,-0.0028
1080.00,-0.0027
1079.00,-0.0026
1078.00,-0.0025
1077.00,-0.0023
1076.00,-0.0024
1075.00,-0.0026
1074.00,-0.0028
1073.00,-0.0030
1072.00,-0.0030
1071.00,-0.0031
1070.00,-0.0032
1069.00,-0.0034
1068.00,-0.0035
1067.00,-0.0034
1066.00,-0.0033
1065.00,-0.0031
1064.00,-0.0029
1063.00,-0.0027
1062.00,-0.0028
1061.00,-0.0030
1060.00,-0.0032
1059.00,-0.0034
1058.00,-0.0033
1057.00,-0.0031
1056.00,-0.0030
1055.00,-0.0029
1054.00,-0.0028
1053.00,-0.0027
1052.00,-0.0026
1051.00,-0.0026
1050.00,-0.0025
1049.00,-0.0024
1048.00,-0.0023
1047.00,-0.0022
1046.00,-0.0023
1045.00,-0.0023
1044.00,-0.0023
1043.00,-0.0023
1042.00,-0.0024
1041.00,-0.0026
1040.00,-0.0028
1039.00,-0.0028
1038.00,-0.0028
1037.00,-0.0028
1036.00,-0.0028
1035.00,-0.0028
1034.00,-0.0028
1033.00,-0.0027
1032.00,-0.0026
1031.00,-0.0026
1030.00,-0.0027
1029.00,-0.0029
1028.00,-0.0030
1027.00,-0.0030
1026.00,-0.0030
1025.00,-0.0029
1024.00,-0.0029
1023.00,-0.0028
1022.00,-0.0028
1021.00,-0.0029
1020.00,-0.0030
1019.00,-0.0031
1018.00,-0.0031
1017.00,-0.0031
1016.00,-0.0031
1015.00,-0.0029
1014.00,-0.0028
1013.00,-0.0027
1012.00,-0.0028
1011.00,-0.0028
1010.00,-0.0028
1009.00,-0.0028
1008.00,-0.0029
1007.00,-0.0031
1006.00,-0.0031
1005.00,-0.0031
1004.00,-0.0030
1003.00,-0.0029
1002.00,-0.0029
1001.00,-0.0029
1000.00,-0.0031
999.00,-0.0033
998.00,-0.0034
997.00,-0.0034
996.00,-0.0033
995.00,-0.0032
994.00,-0.0032
993.00,-0.0032
992.00,-0.0033
991.00,-0.0033
990.00,-0.0033
989.00,-0.0033
988.00,-0.0033
987.00,-0.0032
986.00,-0.0031
985.00,-0.0030
984.00,-0.0031
983.00,-0.0033
982.00,-0.0034
981.00,-0.0034
980.00,-0.0033
979.00,-0.0033
978.00,-0.0034
977.00,-0.0036
976.00,-0.0038
975.00,-0.0040
974.00,-0.0040
973.00,-0.0040
972.00,-0.0040
971.00,-0.0040
970.00,-0.0041
969.00,-0.0043
968.00,-0.0044
967.00,-0.0044
966.00,-0.0044
965.00,-0.0046
964.00,-0.0047
963.00,-0.0047
962.00,-0.0047
961.00,-0.0046
960.00,-0.0047
959.00,-0.0047
958.00,-0.0048
957.00,-0.0048
956.00,-0.0048
955.00,-0.0048
954.00,-0.0049
953.00,-0.0050
952.00,-0.0049
951.00,-0.0048
950.00,-0.0046
949.00,-0.0045
948.00,-0.0045
947.00,-0.0046
946.00,-0.0048
945.00,-0.0049
944.00,-0.0050
943.00,-0.0050
942.00,-0.0050
941.00,-0.0049
940.00,-0.0049
939.00,-0.0047
938.00,-0.0046
937.00,-0.0046
936.00,-0.0047
935.00,-0.0049
934.00,-0.0049
933.00,-0.0047
932.00,-0.0043
931.00,-0.0041
930.00,-0.0039
929.00,-0.0039
928.00,-0.0038
927.00,-0.0038
926.00,-0.0038
925.00,-0.0038
924.00,-0.0038
923.00,-0.0038
922.00,-0.0038
921.00,-0.0038
920.00,-0.0039
919.00,-0.0040
918.00,-0.0040
917.00,-0.0039
916.00,-0.0038
915.00,-0.0038
914.00,-0.0037
913.00,-0.0038
912.00,-0.0038
911.00,-0.0039
910.00,-0.0041
909.00,-0.0044
908.00,-0.0047
907.00,-0.0048
906.00,-0.0047
905.00,-0.0044
904.00,-0.0040
903.00,-0.0036
902.00,-0.0034
901.00,-0.0035
900.00,-0.0037
899.00,-0.0038
898.00,-0.0038
897.00,-0.0036
896.00,-0.0035
895.00,-0.0035
894.00,-0.0036
893.00,-0.0038
892.00,-0.0041
891.00,-0.0043
890.00,-0.0043
889.00,-0.0041
888.00,-0.0039
887.00,-0.0039
886.00,-0.0041
885.00,-0.0043
884.00,-0.0044
883.00,-0.0041
882.00,-0.0038
881.00,-0.0036
880.00,-0.0036
879.00,-0.0037
878.00,-0.0040
877.00,-0.0043
876.00,-0.0045
875.00,-0.0045
874.00,-0.0044
873.00,-0.0043
872.00,-0.0044
871.00,-0.0044
870.00,-0.0045
869.00,-0.0046
868.00,-0.0047
867.00,-0.0048
866.00,-0.0048
865.00,-0.0046
864.00,-0.0045
863.00,-0.0044
862.00,-0.0043
861.00,-0.0042
860.00,-0.0041
859.00,-0.0042
858.00,-0.0044
857.00,-0.0047
856.00,-0.0048
855.00,-0.0047
854.00,-0.0046
853.00,-0.0046
852.00,-0.0047
851.00,-0.0048
850.00,-0.0047
849.00,-0.0045
848.00,-0.0043
847.00,-0.0042
846.00,-0.0040
845.00,-0.0039
844.00,-0.0039
843.00,-0.0041
842.00,-0.0043
841.00,-0.0045
840.00,-0.0047
839.00,-0.0049
838.00,-0.0050
837.00,-0.0050
836.00,-0.0048
835.00,-0.0048
834.00,-0.0048
833.00,-0.0049
832.00,-0.0050
831.00,-0.0050
830.00,-0.0050
829.00,-0.0051
828.00,-0.0051
827.00,-0.0050
826.00,-0.0049
825.00,-0.0047
824.00,-0.0046
823.00,-0.0046
822.00,-0.0046
821.00,-0.0046
820.00,-0.0046
819.00,-0.0046
818.00,-0.0047
817.00,-0.0050
816.00,-0.0052
815.00,-0.0053
814.00,-0.0052
813.00,-0.0049
812.00,-0.0047
811.00,-0.0046
810.00,-0.0047
809.00,-0.0048
808.00,-0.0050
807.00,-0.0051
806.00,-0.0053
805.00,-0.0055
804.00,-0.0056
803.00,-0.0055
802.00,-0.0054
801.00,-0.0051
800.00,-0.0048
799.00,-0.0046
798.00,-0.0046
797.00,-0.0048
796.00,-0.0050
795.00,-0.0052
794.00,-0.0054
793.00,-0.0054
792.00,-0.0054
791.00,-0.0053
790.00,-0.0051
789.00,-0.0051
788.00,-0.0052
787.00,-0.0052
786.00,-0.0051
785.00,-0.0048
784.00,-0.0046
783.00,-0.0045
782.00,-0.0046
781.00,-0.0048
780.00,-0.0051
779.00,-0.0052
778.00,-0.0052
777.00,-0.0050
776.00,-0.0048
775.00,-0.0048
774.00,-0.0050
773.00,-0.0054
772.00,-0.0055
771.00,-0.0055
770.00,-0.0054
769.00,-0.0053
768.00,-0.0053
767.00,-0.0054
766.00,-0.0056
765.00,-0.0057
764.00,-0.0056
763.00,-0.0056
762.00,-0.0058
761.00,-0.0061
760.00,-0.0063
759.00,-0.0062
758.00,-0.0058
757.00,-0.0056
756.00,-0.0056
755.00,-0.0058
754.00,-0.0060
753.00,-0.0060
752.00,-0.0059
751.00,-0.0057
750.00,-0.0054
749.00,-0.0052
748.00,-0.0052
747.00,-0.0052
746.00,-0.0054
745.00,-0.0055
744.00,-0.0057
743.00,-0.0058
742.00,-0.0058
741.00,-0.0059
740.00,-0.0060
739.00,-0.0062
738.00,-0.0063
737.00,-0.0064
736.00,-0.0065
735.00,-0.0065
734.00,-0.0065
733.00,-0.0065
732.00,-0.0065
731.00,-0.0063
730.00,-0.0060
729.00,-0.0057
728.00,-0.0053
727.00,-0.0050
726.00,-0.0048
725.00,-0.0047
724.00,-0.0048
723.00,-0.0050
722.00,-0.0051
721.00,-0.0052
720.00,-0.0053
719.00,-0.0053
718.00,-0.0054
717.00,-0.0055
716.00,-0.0057
715.00,-0.0059
714.00,-0.0061
713.00,-0.0061
712.00,-0.0061
711.00,-0.0062
710.00,-0.0065
709.00,-0.0069
708.00,-0.0070
707.00,-0.0070
706.00,-0.0068
705.00,-0.0066
704.00,-0.0063
703.00,-0.0061
702.00,-0.0061
701.00,-0.0063
700.00,-0.0067
699.00,-0.0069
698.00,-0.0069
697.00,-0.0069
696.00,-0.0069
695.00,-0.0069
694.00,-0.0066
693.00,-0.0063
692.00,-0.0061
691.00,-0.0061
690.00,-0.0063
689.00,-0.0064
688.00,-0.0066
687.00,-0.0068
686.00,-0.0069
685.00,-0.0070
684.00,-0.0072
683.00,-0.0076
682.00,-0.0080
681.00,-0.0082
680.00,-0.0079
679.00,-0.0075
678.00,-0.0072
677.00,-0.0071
676.00,-0.0072
675.00,-0.0072
674.00,-0.0072
673.00,-0.0071
672.00,-0.0068
671.00,-0.0065
670.00,-0.0063
669.00,-0.0063
668.00,-0.0065
667.00,-0.0066
666.00,-0.0063
665.00,-0.0061
664.00,-0.0062
663.00,-0.0065
662.00,-0.0071
661.00,-0.0078
660.00,-0.0085
659.00,-0.0089
658.00,-0.0088
657.00,-0.0080
656.00,-0.0074
655.00,-0.0072
654.00,-0.0085
653.00,-0.0098
652.00,-0.0105
651.00,-0.0109
650.00,-0.0106
