Created as New Dataset,Monday, April 03 2023
cm-1,A
4000.00,0.0037
3999.00,0.0037
3998.00,0.0037
3997.00,0.0037
3996.00,0.0037
3995.00,0.0037
3994.00,0.0037
3993.00,0.0037
3992.00,0.0037
3991.00,0.0037
3990.00,0.0037
3989.00,0.0037
3988.00,0.0036
3987.00,0.0036
3986.00,0.0036
3985.00,0.0037
3984.00,0.0037
3983.00,0.0037
3982.00,0.0037
3981.00,0.0037
3980.00,0.0037
3979.00,0.0037
3978.00,0.0037
3977.00,0.0037
3976.00,0.0037
3975.00,0.0037
3974.00,0.0037
3973.00,0.0037
3972.00,0.0037
3971.00,0.0037
3970.00,0.0038
3969.00,0.0038
3968.00,0.0037
3967.00,0.0037
3966.00,0.0036
3965.00,0.0036
3964.00,0.0037
3963.00,0.0038
3962.00,0.0039
3961.00,0.0038
3960.00,0.0038
3959.00,0.0037
3958.00,0.0037
3957.00,0.0037
3956.00,0.0036
3955.00,0.0036
3954.00,0.0036
3953.00,0.0036
3952.00,0.0036
3951.00,0.0037
3950.00,0.0038
3949.00,0.0039
3948.00,0.0040
3947.00,0.0040
3946.00,0.0039
3945.00,0.0039
3944.00,0.0038
3943.00,0.0037
3942.00,0.0036
3941.00,0.0036
3940.00,0.0036
3939.00,0.0037
3938.00,0.0037
3937.00,0.0037
3936.00,0.0037
3935.00,0.0037
3934.00,0.0037
3933.00,0.0037
3932.00,0.0037
3931.00,0.0037
3930.00,0.0038
3929.00,0.0038
3928.00,0.0038
3927.00,0.0039
3926.00,0.0039
3925.00,0.0039
3924.00,0.0039
3923.00,0.0039
3922.00,0.0038
3921.00,0.0038
3920.00,0.0037
3919.00,0.0037
3918.00,0.0038
3917.00,0.0038
3916.00,0.0038
3915.00,0.0038
3914.00,0.0038
3913.00,0.0038
3912.00,0.0037
3911.00,0.0037
3910.00,0.0037
3909.00,0.0038
3908.00,0.0038
3907.00,0.0038
3906.00,0.0038
3905.00,0.0038
3904.00,0.0038
3903.00,0.0038
3902.00,0.0039
3901.00,0.0039
3900.00,0.0039
3899.00,0.0038
3898.00,0.0038
3897.00,0.0038
3896.00,0.0038
3895.00,0.0039
3894.00,0.0039
3893.00,0.0039
3892.00,0.0038
3891.00,0.0037
3890.00,0.0036
3889.00,0.0035
3888.00,0.0035
3887.00,0.0035
3886.00,0.0035
3885.00,0.0035
3884.00,0.0036
3883.00,0.0037
3882.00,0.0037
3881.00,0.0036
3880.00,0.0035
3879.00,0.0035
3878.00,0.0037
3877.00,0.0039
3876.00,0.0041
3875.00,0.0040
3874.00,0.0039
3873.00,0.0038
3872.00,0.0039
3871.00,0.0039
3870.00,0.0039
3869.00,0.0038
3868.00,0.0038
3867.00,0.0039
3866.00,0.0040
3865.00,0.0041
3864.00,0.0041
3863.00,0.0041
3862.00,0.0041
3861.00,0.0041
3860.00,0.0041
3859.00,0.0040
3858.00,0.0039
3857.00,0.0036
3856.00,0.0033
3855.00,0.0033
3854.00,0.0034
3853.00,0.0036
3852.00,0.0037
3851.00,0.0038
3850.00,0.0039
3849.00,0.0039
3848.00,0.0039
3847.00,0.0039
3846.00,0.0039
3845.00,0.0039
3844.00,0.0040
3843.00,0.0040
3842.00,0.0040
3841.00,0.0041
3840.00,0.0043
3839.00,0.0043
3838.00,0.0042
3837.00,0.0041
3836.00,0.0040
3835.00,0.0039
3834.00,0.0040
3833.00,0.0040
3832.00,0.0040
3831.00,0.0040
3830.00,0.0040
3829.00,0.0041
3828.00,0.0041
3827.00,0.0040
3826.00,0.0039
3825.00,0.0039
3824.00,0.0040
3823.00,0.0042
3822.00,0.0042
3821.00,0.0041
3820.00,0.0040
3819.00,0.0040
3818.00,0.0040
3817.00,0.0041
3816.00,0.0040
3815.00,0.0040
3814.00,0.0041
3813.00,0.0041
3812.00,0.0040
3811.00,0.0039
3810.00,0.0037
3809.00,0.0037
3808.00,0.0038
3807.00,0.0039
3806.00,0.0040
3805.00,0.0042
3804.00,0.0044
3803.00,0.0045
3802.00,0.0045
3801.00,0.0044
3800.00,0.0043
3799.00,0.0042
3798.00,0.0042
3797.00,0.0041
3796.00,0.0040
3795.00,0.0039
3794.00,0.0039
3793.00,0.0040
3792.00,0.0040
3791.00,0.0040
3790.00,0.0040
3789.00,0.0040
3788.00,0.0041
3787.00,0.0042
3786.00,0.0043
3785.00,0.0043
3784.00,0.0043
3783.00,0.0043
3782.00,0.0042
3781.00,0.0042
3780.00,0.0041
3779.00,0.0040
3778.00,0.0039
3777.00,0.0039
3776.00,0.0040
3775.00,0.0040
3774.00,0.0040
3773.00,0.0040
3772.00,0.0040
3771.00,0.0040
3770.00,0.0040
3769.00,0.0039
3768.00,0.0040
3767.00,0.0040
3766.00,0.0041
3765.00,0.0041
3764.00,0.0041
3763.00,0.0041
3762.00,0.0042
3761.00,0.0043
3760.00,0.0043
3759.00,0.0043
3758.00,0.0042
3757.00,0.0042
3756.00,0.0041
3755.00,0.0041
3754.00,0.0041
3753.00,0.0041
3752.00,0.0043
3751.00,0.0044
3750.00,0.0044
3749.00,0.0044
3748.00,0.0044
3747.00,0.0044
3746.00,0.0043
3745.00,0.0041
3744.00,0.0039
3743.00,0.0039
3742.00,0.0041
3741.00,0.0044
3740.00,0.0045
3739.00,0.0045
3738.00,0.0044
3737.00,0.0045
3736.00,0.0045
3735.00,0.0044
3734.00,0.0043
3733.00,0.0042
3732.00,0.0041
3731.00,0.0041
3730.00,0.0042
3729.00,0.0043
3728.00,0.0043
3727.00,0.0043
3726.00,0.0043
3725.00,0.0043
3724.00,0.0042
3723.00,0.0042
3722.00,0.0042
3721.00,0.0042
3720.00,0.0042
3719.00,0.0042
3718.00,0.0042
3717.00,0.0041
3716.00,0.0040
3715.00,0.0041
3714.00,0.0041
3713.00,0.0043
3712.00,0.0044
3711.00,0.0044
3710.00,0.0042
3709.00,0.0040
3708.00,0.0040
3707.00,0.0041
3706.00,0.0042
3705.00,0.0043
3704.00,0.0043
3703.00,0.0042
3702.00,0.0040
3701.00,0.0040
3700.00,0.0040
3699.00,0.0041
3698.00,0.0041
3697.00,0.0041
3696.00,0.0041
3695.00,0.0040
3694.00,0.0040
3693.00,0.0040
3692.00,0.0040
3691.00,0.0042
3690.00,0.0044
3689.00,0.0044
3688.00,0.0043
3687.00,0.0043
3686.00,0.0043
3685.00,0.0043
3684.00,0.0043
3683.00,0.0042
3682.00,0.0042
3681.00,0.0041
3680.00,0.0040
3679.00,0.0038
3678.00,0.0038
3677.00,0.0037
3676.00,0.0037
3675.00,0.0036
3674.00,0.0035
3673.00,0.0037
3672.00,0.0039
3671.00,0.0040
3670.00,0.0040
3669.00,0.0039
3668.00,0.0038
3667.00,0.0038
3666.00,0.0038
3665.00,0.0038
3664.00,0.0038
3663.00,0.0038
3662.00,0.0039
3661.00,0.0039
3660.00,0.0040
3659.00,0.0040
3658.00,0.0040
3657.00,0.0040
3656.00,0.0040
3655.00,0.0040
3654.00,0.0040
3653.00,0.0041
3652.00,0.0041
3651.00,0.0041
3650.00,0.0042
3649.00,0.0042
3648.00,0.0041
3647.00,0.0039
3646.00,0.0039
3645.00,0.0039
3644.00,0.0040
3643.00,0.0040
3642.00,0.0040
3641.00,0.0040
3640.00,0.0040
3639.00,0.0039
3638.00,0.0039
3637.00,0.0039
3636.00,0.0039
3635.00,0.0039
3634.00,0.0039
3633.00,0.0038
3632.00,0.0038
3631.00,0.0038
3630.00,0.0039
3629.00,0.0039
3628.00,0.0039
3627.00,0.0038
3626.00,0.0039
3625.00,0.0039
3624.00,0.0039
3623.00,0.0038
3622.00,0.0038
3621.00,0.0039
3620.00,0.0040
3619.00,0.0040
3618.00,0.0040
3617.00,0.0041
3616.00,0.0041
3615.00,0.0042
3614.00,0.0041
3613.00,0.0040
3612.00,0.0040
3611.00,0.0040
3610.00,0.0041
3609.00,0.0042
3608.00,0.0042
3607.00,0.0042
3606.00,0.0040
3605.00,0.0039
3604.00,0.0039
3603.00,0.0040
3602.00,0.0041
3601.00,0.0042
3600.00,0.0043
3599.00,0.0042
3598.00,0.0042
3597.00,0.0041
3596.00,0.0040
3595.00,0.0040
3594.00,0.0039
3593.00,0.0039
3592.00,0.0038
3591.00,0.0038
3590.00,0.0038
3589.00,0.0039
3588.00,0.0039
3587.00,0.0039
3586.00,0.0039
3585.00,0.0039
3584.00,0.0039
3583.00,0.0039
3582.00,0.0039
3581.00,0.0038
3580.00,0.0038
3579.00,0.0038
3578.00,0.0038
3577.00,0.0038
3576.00,0.0038
3575.00,0.0038
3574.00,0.0038
3573.00,0.0038
3572.00,0.0038
3571.00,0.0038
3570.00,0.0038
3569.00,0.0039
3568.00,0.0040
3567.00,0.0041
3566.00,0.0041
3565.00,0.0040
3564.00,0.0038
3563.00,0.0038
3562.00,0.0037
3561.00,0.0037
3560.00,0.0037
3559.00,0.0038
3558.00,0.0038
3557.00,0.0039
3556.00,0.0040
3555.00,0.0040
3554.00,0.0040
3553.00,0.0040
3552.00,0.0040
3551.00,0.0041
3550.00,0.0041
3549.00,0.0042
3548.00,0.0043
3547.00,0.0043
3546.00,0.0043
3545.00,0.0042
3544.00,0.0042
3543.00,0.0041
3542.00,0.0040
3541.00,0.0040
3540.00,0.0039
3539.00,0.0038
3538.00,0.0037
3537.00,0.0037
3536.00,0.0036
3535.00,0.0037
3534.00,0.0038
3533.00,0.0038
3532.00,0.0039
3531.00,0.0039
3530.00,0.0039
3529.00,0.0038
3528.00,0.0037
3527.00,0.0037
3526.00,0.0038
3525.00,0.0039
3524.00,0.0041
3523.00,0.0041
3522.00,0.0040
3521.00,0.0039
3520.00,0.0037
3519.00,0.0036
3518.00,0.0034
3517.00,0.0034
3516.00,0.0033
3515.00,0.0034
3514.00,0.0035
3513.00,0.0036
3512.00,0.0037
3511.00,0.0037
3510.00,0.0037
3509.00,0.0036
3508.00,0.0035
3507.00,0.0035
3506.00,0.0036
3505.00,0.0037
3504.00,0.0038
3503.00,0.0039
3502.00,0.0039
3501.00,0.0038
3500.00,0.0037
3499.00,0.0037
3498.00,0.0037
3497.00,0.0037
3496.00,0.0037
3495.00,0.0036
3494.00,0.0036
3493.00,0.0035
3492.00,0.0035
3491.00,0.0034
3490.00,0.0034
3489.00,0.0033
3488.00,0.0033
3487.00,0.0033
3486.00,0.0033
3485.00,0.0034
3484.00,0.0034
3483.00,0.0034
3482.00,0.0034
3481.00,0.0034
3480.00,0.0034
3479.00,0.0034
3478.00,0.0034
3477.00,0.0034
3476.00,0.0034
3475.00,0.0035
3474.00,0.0035
3473.00,0.0035
3472.00,0.0035
3471.00,0.0035
3470.00,0.0035
3469.00,0.0035
3468.00,0.0035
3467.00,0.0035
3466.00,0.0035
3465.00,0.0035
3464.00,0.0035
3463.00,0.0035
3462.00,0.0033
3461.00,0.0033
3460.00,0.0033
3459.00,0.0034
3458.00,0.0034
3457.00,0.0034
3456.00,0.0033
3455.00,0.0032
3454.00,0.0032
3453.00,0.0032
3452.00,0.0032
3451.00,0.0033
3450.00,0.0034
3449.00,0.0034
3448.00,0.0034
3447.00,0.0034
3446.00,0.0033
3445.00,0.0034
3444.00,0.0034
3443.00,0.0033
3442.00,0.0033
3441.00,0.0032
3440.00,0.0031
3439.00,0.0030
3438.00,0.0030
3437.00,0.0030
3436.00,0.0031
3435.00,0.0030
3434.00,0.0030
3433.00,0.0030
3432.00,0.0031
3431.00,0.0031
3430.00,0.0031
3429.00,0.0030
3428.00,0.0030
3427.00,0.0030
3426.00,0.0031
3425.00,0.0032
3424.00,0.0033
3423.00,0.0034
3422.00,0.0033
3421.00,0.0033
3420.00,0.0032
3419.00,0.0031
3418.00,0.0031
3417.00,0.0031
3416.00,0.0030
3415.00,0.0030
3414.00,0.0030
3413.00,0.0030
3412.00,0.0031
3411.00,0.0031
3410.00,0.0031
3409.00,0.0031
3408.00,0.0031
3407.00,0.0031
3406.00,0.0031
3405.00,0.0031
3404.00,0.0030
3403.00,0.0030
3402.00,0.0030
3401.00,0.0030
3400.00,0.0031
3399.00,0.0031
3398.00,0.0031
3397.00,0.0030
3396.00,0.0029
3395.00,0.0029
3394.00,0.0029
3393.00,0.0030
3392.00,0.0030
3391.00,0.0031
3390.00,0.0031
3389.00,0.0031
3388.00,0.0030
3387.00,0.0029
3386.00,0.0029
3385.00,0.0029
3384.00,0.0029
3383.00,0.0029
3382.00,0.0029
3381.00,0.0029
3380.00,0.0030
3379.00,0.0030
3378.00,0.0030
3377.00,0.0030
3376.00,0.0030
3375.00,0.0030
3374.00,0.0029
3373.00,0.0029
3372.00,0.0028
3371.00,0.0028
3370.00,0.0028
3369.00,0.0028
3368.00,0.0029
3367.00,0.0029
3366.00,0.0028
3365.00,0.0027
3364.00,0.0027
3363.00,0.0028
3362.00,0.0029
3361.00,0.0031
3360.00,0.0031
3359.00,0.0031
3358.00,0.0031
3357.00,0.0030
3356.00,0.0029
3355.00,0.0029
3354.00,0.0030
3353.00,0.0030
3352.00,0.0030
3351.00,0.0030
3350.00,0.0030
3349.00,0.0030
3348.00,0.0030
3347.00,0.0029
3346.00,0.0029
3345.00,0.0029
3344.00,0.0029
3343.00,0.0028
3342.00,0.0028
3341.00,0.0029
3340.00,0.0029
3339.00,0.0030
3338.00,0.0030
3337.00,0.0030
3336.00,0.0029
3335.00,0.0029
3334.00,0.0028
3333.00,0.0028
3332.00,0.0028
3331.00,0.0028
3330.00,0.0027
3329.00,0.0027
3328.00,0.0027
3327.00,0.0027
3326.00,0.0028
3325.00,0.0029
3324.00,0.0029
3323.00,0.0029
3322.00,0.0029
3321.00,0.0028
3320.00,0.0028
3319.00,0.0028
3318.00,0.0028
3317.00,0.0028
3316.00,0.0028
3315.00,0.0027
3314.00,0.0027
3313.00,0.0027
3312.00,0.0027
3311.00,0.0027
3310.00,0.0028
3309.00,0.0029
3308.00,0.0029
3307.00,0.0030
3306.00,0.0030
3305.00,0.0029
3304.00,0.0029
3303.00,0.0028
3302.00,0.0028
3301.00,0.0028
3300.00,0.0029
3299.00,0.0029
3298.00,0.0029
3297.00,0.0029
3296.00,0.0029
3295.00,0.0029
3294.00,0.0030
3293.00,0.0030
3292.00,0.0029
3291.00,0.0029
3290.00,0.0029
3289.00,0.0028
3288.00,0.0029
3287.00,0.0029
3286.00,0.0030
3285.00,0.0030
3284.00,0.0030
3283.00,0.0030
3282.00,0.0030
3281.00,0.0029
3280.00,0.0029
3279.00,0.0029
3278.00,0.0029
3277.00,0.0029
3276.00,0.0029
3275.00,0.0029
3274.00,0.0029
3273.00,0.0029
3272.00,0.0029
3271.00,0.0030
3270.00,0.0031
3269.00,0.0031
3268.00,0.0031
3267.00,0.0031
3266.00,0.0030
3265.00,0.0029
3264.00,0.0028
3263.00,0.0027
3262.00,0.0028
3261.00,0.0028
3260.00,0.0029
3259.00,0.0030
3258.00,0.0030
3257.00,0.0030
3256.00,0.0029
3255.00,0.0029
3254.00,0.0029
3253.00,0.0029
3252.00,0.0029
3251.00,0.0029
3250.00,0.0029
3249.00,0.0028
3248.00,0.0028
3247.00,0.0028
3246.00,0.0029
3245.00,0.0029
3244.00,0.0029
3243.00,0.0029
3242.00,0.0029
3241.00,0.0029
3240.00,0.0029
3239.00,0.0029
3238.00,0.0029
3237.00,0.0030
3236.00,0.0031
3235.00,0.0031
3234.00,0.0032
3233.00,0.0032
3232.00,0.0031
3231.00,0.0031
3230.00,0.0030
3229.00,0.0029
3228.00,0.0028
3227.00,0.0028
3226.00,0.0028
3225.00,0.0028
3224.00,0.0029
3223.00,0.0029
3222.00,0.0029
3221.00,0.0029
3220.00,0.0028
3219.00,0.0028
3218.00,0.0028
3217.00,0.0028
3216.00,0.0029
3215.00,0.0030
3214.00,0.0030
3213.00,0.0029
3212.00,0.0029
3211.00,0.0028
3210.00,0.0028
3209.00,0.0028
3208.00,0.0028
3207.00,0.0028
3206.00,0.0029
3205.00,0.0029
3204.00,0.0029
3203.00,0.0030
3202.00,0.0030
3201.00,0.0030
3200.00,0.0030
3199.00,0.0030
3198.00,0.0030
3197.00,0.0029
3196.00,0.0029
3195.00,0.0029
3194.00,0.0029
3193.00,0.0029
3192.00,0.0029
3191.00,0.0028
3190.00,0.0028
3189.00,0.0028
3188.00,0.0027
3187.00,0.0027
3186.00,0.0027
3185.00,0.0027
3184.00,0.0028
3183.00,0.0029
3182.00,0.0030
3181.00,0.0030
3180.00,0.0030
3179.00,0.0029
3178.00,0.0028
3177.00,0.0028
3176.00,0.0027
3175.00,0.0027
3174.00,0.0028
3173.00,0.0028
3172.00,0.0028
3171.00,0.0028
3170.00,0.0028
3169.00,0.0028
3168.00,0.0028
3167.00,0.0028
3166.00,0.0029
3165.00,0.0029
3164.00,0.0030
3163.00,0.0030
3162.00,0.0030
3161.00,0.0029
3160.00,0.0028
3159.00,0.0027
3158.00,0.0026
3157.00,0.0026
3156.00,0.0027
3155.00,0.0027
3154.00,0.0028
3153.00,0.0029
3152.00,0.0029
3151.00,0.0028
3150.00,0.0028
3149.00,0.0028
3148.00,0.0028
3147.00,0.0028
3146.00,0.0028
3145.00,0.0028
3144.00,0.0029
3143.00,0.0029
3142.00,0.0029
3141.00,0.0029
3140.00,0.0029
3139.00,0.0028
3138.00,0.0028
3137.00,0.0028
3136.00,0.0029
3135.00,0.0029
3134.00,0.0028
3133.00,0.0028
3132.00,0.0028
3131.00,0.0028
3130.00,0.0029
3129.00,0.0029
3128.00,0.0029
3127.00,0.0029
3126.00,0.0028
3125.00,0.0028
3124.00,0.0028
3123.00,0.0028
3122.00,0.0028
3121.00,0.0028
3120.00,0.0028
3119.00,0.0029
3118.00,0.0029
3117.00,0.0029
3116.00,0.0029
3115.00,0.0029
3114.00,0.0028
3113.00,0.0028
3112.00,0.0028
3111.00,0.0028
3110.00,0.0028
3109.00,0.0028
3108.00,0.0028
3107.00,0.0028
3106.00,0.0028
3105.00,0.0029
3104.00,0.0030
3103.00,0.0029
3102.00,0.0029
3101.00,0.0028
3100.00,0.0028
3099.00,0.0028
3098.00,0.0027
3097.00,0.0028
3096.00,0.0028
3095.00,0.0029
3094.00,0.0030
3093.00,0.0030
3092.00,0.0030
3091.00,0.0030
3090.00,0.0029
3089.00,0.0028
3088.00,0.0027
3087.00,0.0027
3086.00,0.0028
3085.00,0.0028
3084.00,0.0029
3083.00,0.0029
3082.00,0.0029
3081.00,0.0029
3080.00,0.0029
3079.00,0.0029
3078.00,0.0029
3077.00,0.0028
3076.00,0.0028
3075.00,0.0029
3074.00,0.0029
3073.00,0.0029
3072.00,0.0029
3071.00,0.0029
3070.00,0.0030
3069.00,0.0030
3068.00,0.0030
3067.00,0.0031
3066.00,0.0030
3065.00,0.0030
3064.00,0.0029
3063.00,0.0028
3062.00,0.0028
3061.00,0.0028
3060.00,0.0029
3059.00,0.0029
3058.00,0.0029
3057.00,0.0029
3056.00,0.0029
3055.00,0.0029
3054.00,0.0029
3053.00,0.0028
3052.00,0.0029
3051.00,0.0029
3050.00,0.0030
3049.00,0.0030
3048.00,0.0030
3047.00,0.0030
3046.00,0.0030
3045.00,0.0030
3044.00,0.0029
3043.00,0.0029
3042.00,0.0028
3041.00,0.0027
3040.00,0.0027
3039.00,0.0027
3038.00,0.0028
3037.00,0.0029
3036.00,0.0029
3035.00,0.0030
3034.00,0.0030
3033.00,0.0030
3032.00,0.0030
3031.00,0.0030
3030.00,0.0029
3029.00,0.0028
3028.00,0.0028
3027.00,0.0028
3026.00,0.0029
3025.00,0.0029
3024.00,0.0029
3023.00,0.0029
3022.00,0.0029
3021.00,0.0029
3020.00,0.0029
3019.00,0.0028
3018.00,0.0027
3017.00,0.0027
3016.00,0.0027
3015.00,0.0027
3014.00,0.0027
3013.00,0.0026
3012.00,0.0026
3011.00,0.0026
3010.00,0.0026
3009.00,0.0025
3008.00,0.0023
3007.00,0.0022
3006.00,0.0022
3005.00,0.0021
3004.00,0.0020
3003.00,0.0019
3002.00,0.0018
3001.00,0.0017
3000.00,0.0016
2999.00,0.0015
2998.00,0.0014
2997.00,0.0012
2996.00,0.0012
2995.00,0.0012
2994.00,0.0011
2993.00,0.0011
2992.00,0.0010
2991.00,0.0009
2990.00,0.0009
2989.00,0.0008
2988.00,0.0008
2987.00,0.0007
2986.00,0.0005
2985.00,0.0002
2984.00,-0.0001
2983.00,-0.0004
2982.00,-0.0005
2981.00,-0.0004
2980.00,-0.0003
2979.00,-0.0001
2978.00,0.0001
2977.00,0.0003
2976.00,0.0005
2975.00,0.0006
2974.00,0.0006
2973.00,0.0005
2972.00,0.0005
2971.00,0.0005
2970.00,0.0007
2969.00,0.0009
2968.00,0.0011
2967.00,0.0013
2966.00,0.0014
2965.00,0.0015
2964.00,0.0016
2963.00,0.0018
2962.00,0.0019
2961.00,0.0020
2960.00,0.0021
2959.00,0.0021
2958.00,0.0021
2957.00,0.0022
2956.00,0.0023
2955.00,0.0025
2954.00,0.0026
2953.00,0.0027
2952.00,0.0027
2951.00,0.0028
2950.00,0.0028
2949.00,0.0029
2948.00,0.0029
2947.00,0.0030
2946.00,0.0030
2945.00,0.0031
2944.00,0.0032
2943.00,0.0034
2942.00,0.0036
2941.00,0.0037
2940.00,0.0038
2939.00,0.0039
2938.00,0.0039
2937.00,0.0041
2936.00,0.0042
2935.00,0.0044
2934.00,0.0046
2933.00,0.0047
2932.00,0.0049
2931.00,0.0050
2930.00,0.0052
2929.00,0.0053
2928.00,0.0055
2927.00,0.0056
2926.00,0.0056
2925.00,0.0056
2924.00,0.0056
2923.00,0.0055
2922.00,0.0054
2921.00,0.0053
2920.00,0.0050
2919.00,0.0048
2918.00,0.0045
2917.00,0.0043
2916.00,0.0042
2915.00,0.0041
2914.00,0.0040
2913.00,0.0040
2912.00,0.0039
2911.00,0.0039
2910.00,0.0038
2909.00,0.0037
2908.00,0.0037
2907.00,0.0036
2906.00,0.0035
2905.00,0.0035
2904.00,0.0034
2903.00,0.0033
2902.00,0.0033
2901.00,0.0032
2900.00,0.0032
2899.00,0.0031
2898.00,0.0030
2897.00,0.0030
2896.00,0.0030
2895.00,0.0029
2894.00,0.0029
2893.00,0.0028
2892.00,0.0028
2891.00,0.0028
2890.00,0.0027
2889.00,0.0027
2888.00,0.0027
2887.00,0.0027
2886.00,0.0026
2885.00,0.0026
2884.00,0.0025
2883.00,0.0025
2882.00,0.0025
2881.00,0.0025
2880.00,0.0026
2879.00,0.0027
2878.00,0.0028
2877.00,0.0028
2876.00,0.0029
2875.00,0.0028
2874.00,0.0028
2873.00,0.0028
2872.00,0.0028
2871.00,0.0029
2870.00,0.0030
2869.00,0.0030
2868.00,0.0031
2867.00,0.0032
2866.00,0.0032
2865.00,0.0033
2864.00,0.0034
2863.00,0.0035
2862.00,0.0036
2861.00,0.0038
2860.00,0.0040
2859.00,0.0042
2858.00,0.0044
2857.00,0.0046
2856.00,0.0047
2855.00,0.0047
2854.00,0.0047
2853.00,0.0046
2852.00,0.0046
2851.00,0.0045
2850.00,0.0044
2849.00,0.0043
2848.00,0.0041
2847.00,0.0039
2846.00,0.0038
2845.00,0.0037
2844.00,0.0036
2843.00,0.0035
2842.00,0.0034
2841.00,0.0032
2840.00,0.0031
2839.00,0.0030
2838.00,0.0030
2837.00,0.0030
2836.00,0.0030
2835.00,0.0031
2834.00,0.0032
2833.00,0.0031
2832.00,0.0030
2831.00,0.0029
2830.00,0.0029
2829.00,0.0029
2828.00,0.0029
2827.00,0.0029
2826.00,0.0029
2825.00,0.0029
2824.00,0.0029
2823.00,0.0029
2822.00,0.0029
2821.00,0.0029
2820.00,0.0028
2819.00,0.0027
2818.00,0.0027
2817.00,0.0027
2816.00,0.0027
2815.00,0.0027
2814.00,0.0027
2813.00,0.0027
2812.00,0.0027
2811.00,0.0027
2810.00,0.0027
2809.00,0.0027
2808.00,0.0027
2807.00,0.0027
2806.00,0.0027
2805.00,0.0027
2804.00,0.0027
2803.00,0.0027
2802.00,0.0027
2801.00,0.0027
2800.00,0.0027
2799.00,0.0028
2798.00,0.0028
2797.00,0.0028
2796.00,0.0028
2795.00,0.0027
2794.00,0.0027
2793.00,0.0027
2792.00,0.0028
2791.00,0.0028
2790.00,0.0029
2789.00,0.0029
2788.00,0.0029
2787.00,0.0028
2786.00,0.0028
2785.00,0.0027
2784.00,0.0027
2783.00,0.0027
2782.00,0.0026
2781.00,0.0025
2780.00,0.0025
2779.00,0.0025
2778.00,0.0025
2777.00,0.0026
2776.00,0.0026
2775.00,0.0026
2774.00,0.0026
2773.00,0.0027
2772.00,0.0026
2771.00,0.0026
2770.00,0.0025
2769.00,0.0024
2768.00,0.0024
2767.00,0.0024
2766.00,0.0025
2765.00,0.0025
2764.00,0.0026
2763.00,0.0026
2762.00,0.0026
2761.00,0.0026
2760.00,0.0026
2759.00,0.0026
2758.00,0.0026
2757.00,0.0026
2756.00,0.0026
2755.00,0.0026
2754.00,0.0026
2753.00,0.0026
2752.00,0.0026
2751.00,0.0026
2750.00,0.0027
2749.00,0.0027
2748.00,0.0027
2747.00,0.0027
2746.00,0.0027
2745.00,0.0027
2744.00,0.0027
2743.00,0.0027
2742.00,0.0027
2741.00,0.0027
2740.00,0.0026
2739.00,0.0026
2738.00,0.0025
2737.00,0.0025
2736.00,0.0025
2735.00,0.0026
2734.00,0.0026
2733.00,0.0027
2732.00,0.0027
2731.00,0.0027
2730.00,0.0027
2729.00,0.0026
2728.00,0.0026
2727.00,0.0026
2726.00,0.0026
2725.00,0.0026
2724.00,0.0026
2723.00,0.0026
2722.00,0.0026
2721.00,0.0026
2720.00,0.0026
2719.00,0.0026
2718.00,0.0027
2717.00,0.0027
2716.00,0.0027
2715.00,0.0027
2714.00,0.0027
2713.00,0.0027
2712.00,0.0027
2711.00,0.0027
2710.00,0.0027
2709.00,0.0027
2708.00,0.0026
2707.00,0.0026
2706.00,0.0026
2705.00,0.0026
2704.00,0.0026
2703.00,0.0026
2702.00,0.0026
2701.00,0.0026
2700.00,0.0026
2699.00,0.0026
2698.00,0.0026
2697.00,0.0026
2696.00,0.0026
2695.00,0.0026
2694.00,0.0026
2693.00,0.0027
2692.00,0.0027
2691.00,0.0027
2690.00,0.0027
2689.00,0.0027
2688.00,0.0027
2687.00,0.0027
2686.00,0.0027
2685.00,0.0027
2684.00,0.0027
2683.00,0.0027
2682.00,0.0026
2681.00,0.0026
2680.00,0.0026
2679.00,0.0026
2678.00,0.0025
2677.00,0.0025
2676.00,0.0025
2675.00,0.0025
2674.00,0.0026
2673.00,0.0026
2672.00,0.0026
2671.00,0.0026
2670.00,0.0025
2669.00,0.0025
2668.00,0.0026
2667.00,0.0026
2666.00,0.0026
2665.00,0.0027
2664.00,0.0027
2663.00,0.0027
2662.00,0.0027
2661.00,0.0027
2660.00,0.0027
2659.00,0.0028
2658.00,0.0028
2657.00,0.0028
2656.00,0.0028
2655.00,0.0028
2654.00,0.0028
2653.00,0.0028
2652.00,0.0028
2651.00,0.0028
2650.00,0.0028
2649.00,0.0028
2648.00,0.0028
2647.00,0.0027
2646.00,0.0027
2645.00,0.0027
2644.00,0.0028
2643.00,0.0028
2642.00,0.0028
2641.00,0.0028
2640.00,0.0028
2639.00,0.0028
2638.00,0.0028
2637.00,0.0028
2636.00,0.0027
2635.00,0.0027
2634.00,0.0028
2633.00,0.0028
2632.00,0.0028
2631.00,0.0028
2630.00,0.0027
2629.00,0.0027
2628.00,0.0026
2627.00,0.0026
2626.00,0.0026
2625.00,0.0028
2624.00,0.0029
2623.00,0.0029
2622.00,0.0029
2621.00,0.0029
2620.00,0.0029
2619.00,0.0029
2618.00,0.0029
2617.00,0.0029
2616.00,0.0029
2615.00,0.0028
2614.00,0.0027
2613.00,0.0027
2612.00,0.0028
2611.00,0.0029
2610.00,0.0029
2609.00,0.0028
2608.00,0.0027
2607.00,0.0027
2606.00,0.0028
2605.00,0.0028
2604.00,0.0029
2603.00,0.0030
2602.00,0.0029
2601.00,0.0029
2600.00,0.0029
2599.00,0.0028
2598.00,0.0028
2597.00,0.0028
2596.00,0.0027
2595.00,0.0027
2594.00,0.0027
2593.00,0.0028
2592.00,0.0028
2591.00,0.0029
2590.00,0.0029
2589.00,0.0029
2588.00,0.0029
2587.00,0.0029
2586.00,0.0028
2585.00,0.0027
2584.00,0.0027
2583.00,0.0027
2582.00,0.0027
2581.00,0.0028
2580.00,0.0029
2579.00,0.0029
2578.00,0.0029
2577.00,0.0028
2576.00,0.0027
2575.00,0.0027
2574.00,0.0027
2573.00,0.0027
2572.00,0.0028
2571.00,0.0028
2570.00,0.0027
2569.00,0.0027
2568.00,0.0027
2567.00,0.0028
2566.00,0.0029
2565.00,0.0029
2564.00,0.0029
2563.00,0.0029
2562.00,0.0029
2561.00,0.0029
2560.00,0.0029
2559.00,0.0029
2558.00,0.0029
2557.00,0.0029
2556.00,0.0030
2555.00,0.0030
2554.00,0.0030
2553.00,0.0029
2552.00,0.0028
2551.00,0.0027
2550.00,0.0026
2549.00,0.0025
2548.00,0.0024
2547.00,0.0024
2546.00,0.0025
2545.00,0.0026
2544.00,0.0027
2543.00,0.0027
2542.00,0.0026
2541.00,0.0025
2540.00,0.0024
2539.00,0.0023
2538.00,0.0023
2537.00,0.0023
2536.00,0.0023
2535.00,0.0024
2534.00,0.0026
2533.00,0.0027
2532.00,0.0027
2531.00,0.0026
2530.00,0.0026
2529.00,0.0025
2528.00,0.0025
2527.00,0.0025
2526.00,0.0024
2525.00,0.0023
2524.00,0.0023
2523.00,0.0023
2522.00,0.0023
2521.00,0.0024
2520.00,0.0025
2519.00,0.0026
2518.00,0.0027
2517.00,0.0029
2516.00,0.0029
2515.00,0.0029
2514.00,0.0028
2513.00,0.0026
2512.00,0.0026
2511.00,0.0026
2510.00,0.0027
2509.00,0.0028
2508.00,0.0028
2507.00,0.0028
2506.00,0.0028
2505.00,0.0027
2504.00,0.0027
2503.00,0.0027
2502.00,0.0027
2501.00,0.0028
2500.00,0.0029
2499.00,0.0029
2498.00,0.0028
2497.00,0.0028
2496.00,0.0027
2495.00,0.0028
2494.00,0.0029
2493.00,0.0029
2492.00,0.0029
2491.00,0.0029
2490.00,0.0029
2489.00,0.0029
2488.00,0.0029
2487.00,0.0029
2486.00,0.0028
2485.00,0.0027
2484.00,0.0027
2483.00,0.0026
2482.00,0.0027
2481.00,0.0028
2480.00,0.0028
2479.00,0.0028
2478.00,0.0028
2477.00,0.0028
2476.00,0.0027
2475.00,0.0027
2474.00,0.0027
2473.00,0.0028
2472.00,0.0028
2471.00,0.0028
2470.00,0.0028
2469.00,0.0027
2468.00,0.0027
2467.00,0.0026
2466.00,0.0026
2465.00,0.0026
2464.00,0.0026
2463.00,0.0026
2462.00,0.0026
2461.00,0.0027
2460.00,0.0027
2459.00,0.0028
2458.00,0.0029
2457.00,0.0029
2456.00,0.0028
2455.00,0.0028
2454.00,0.0029
2453.00,0.0029
2452.00,0.0030
2451.00,0.0030
2450.00,0.0029
2449.00,0.0028
2448.00,0.0028
2447.00,0.0028
2446.00,0.0028
2445.00,0.0028
2444.00,0.0027
2443.00,0.0027
2442.00,0.0027
2441.00,0.0027
2440.00,0.0027
2439.00,0.0028
2438.00,0.0027
2437.00,0.0027
2436.00,0.0027
2435.00,0.0026
2434.00,0.0026
2433.00,0.0026
2432.00,0.0026
2431.00,0.0027
2430.00,0.0027
2429.00,0.0028
2428.00,0.0028
2427.00,0.0028
2426.00,0.0028
2425.00,0.0028
2424.00,0.0027
2423.00,0.0027
2422.00,0.0027
2421.00,0.0027
2420.00,0.0027
2419.00,0.0027
2418.00,0.0027
2417.00,0.0026
2416.00,0.0026
2415.00,0.0026
2414.00,0.0026
2413.00,0.0027
2412.00,0.0027
2411.00,0.0027
2410.00,0.0028
2409.00,0.0028
2408.00,0.0028
2407.00,0.0027
2406.00,0.0027
2405.00,0.0027
2404.00,0.0027
2403.00,0.0026
2402.00,0.0025
2401.00,0.0025
2400.00,0.0025
2399.00,0.0025
2398.00,0.0026
2397.00,0.0026
2396.00,0.0025
2395.00,0.0025
2394.00,0.0025
2393.00,0.0025
2392.00,0.0025
2391.00,0.0024
2390.00,0.0024
2389.00,0.0024
2388.00,0.0025
2387.00,0.0025
2386.00,0.0024
2385.00,0.0024
2384.00,0.0023
2383.00,0.0023
2382.00,0.0023
2381.00,0.0023
2380.00,0.0024
2379.00,0.0024
2378.00,0.0024
2377.00,0.0023
2376.00,0.0023
2375.00,0.0022
2374.00,0.0022
2373.00,0.0023
2372.00,0.0023
2371.00,0.0023
2370.00,0.0021
2369.00,0.0019
2368.00,0.0017
2367.00,0.0017
2366.00,0.0020
2365.00,0.0023
2364.00,0.0024
2363.00,0.0022
2362.00,0.0020
2361.00,0.0020
2360.00,0.0021
2359.00,0.0023
2358.00,0.0024
2357.00,0.0025
2356.00,0.0025
2355.00,0.0024
2354.00,0.0023
2353.00,0.0023
2352.00,0.0023
2351.00,0.0023
2350.00,0.0023
2349.00,0.0023
2348.00,0.0023
2347.00,0.0022
2346.00,0.0022
2345.00,0.0022
2344.00,0.0024
2343.00,0.0026
2342.00,0.0027
2341.00,0.0027
2340.00,0.0027
2339.00,0.0025
2338.00,0.0023
2337.00,0.0021
2336.00,0.0021
2335.00,0.0023
2334.00,0.0024
2333.00,0.0026
2332.00,0.0026
2331.00,0.0025
2330.00,0.0023
2329.00,0.0023
2328.00,0.0024
2327.00,0.0026
2326.00,0.0028
2325.00,0.0028
2324.00,0.0027
2323.00,0.0025
2322.00,0.0025
2321.00,0.0024
2320.00,0.0024
2319.00,0.0023
2318.00,0.0023
2317.00,0.0023
2316.00,0.0023
2315.00,0.0023
2314.00,0.0023
2313.00,0.0024
2312.00,0.0024
2311.00,0.0024
2310.00,0.0025
2309.00,0.0026
2308.00,0.0027
2307.00,0.0027
2306.00,0.0027
2305.00,0.0027
2304.00,0.0026
2303.00,0.0025
2302.00,0.0024
2301.00,0.0024
2300.00,0.0025
2299.00,0.0026
2298.00,0.0026
2297.00,0.0026
2296.00,0.0025
2295.00,0.0025
2294.00,0.0026
2293.00,0.0028
2292.00,0.0030
2291.00,0.0031
2290.00,0.0030
2289.00,0.0029
2288.00,0.0029
2287.00,0.0030
2286.00,0.0031
2285.00,0.0032
2284.00,0.0033
2283.00,0.0034
2282.00,0.0034
2281.00,0.0033
2280.00,0.0032
2279.00,0.0032
2278.00,0.0032
2277.00,0.0032
2276.00,0.0031
2275.00,0.0030
2274.00,0.0029
2273.00,0.0027
2272.00,0.0027
2271.00,0.0027
2270.00,0.0027
2269.00,0.0028
2268.00,0.0028
2267.00,0.0029
2266.00,0.0029
2265.00,0.0030
2264.00,0.0030
2263.00,0.0031
2262.00,0.0031
2261.00,0.0031
2260.00,0.0030
2259.00,0.0029
2258.00,0.0027
2257.00,0.0025
2256.00,0.0024
2255.00,0.0024
2254.00,0.0026
2253.00,0.0027
2252.00,0.0027
2251.00,0.0028
2250.00,0.0028
2249.00,0.0027
2248.00,0.0026
2247.00,0.0027
2246.00,0.0028
2245.00,0.0029
2244.00,0.0030
2243.00,0.0030
2242.00,0.0030
2241.00,0.0028
2240.00,0.0027
2239.00,0.0026
2238.00,0.0025
2237.00,0.0025
2236.00,0.0026
2235.00,0.0027
2234.00,0.0028
2233.00,0.0028
2232.00,0.0028
2231.00,0.0026
2230.00,0.0024
2229.00,0.0023
2228.00,0.0024
2227.00,0.0026
2226.00,0.0027
2225.00,0.0027
2224.00,0.0027
2223.00,0.0026
2222.00,0.0024
2221.00,0.0024
2220.00,0.0023
2219.00,0.0023
2218.00,0.0024
2217.00,0.0025
2216.00,0.0027
2215.00,0.0029
2214.00,0.0030
2213.00,0.0029
2212.00,0.0028
2211.00,0.0027
2210.00,0.0027
2209.00,0.0027
2208.00,0.0028
2207.00,0.0029
2206.00,0.0028
2205.00,0.0027
2204.00,0.0025
2203.00,0.0024
2202.00,0.0023
2201.00,0.0022
2200.00,0.0023
2199.00,0.0023
2198.00,0.0024
2197.00,0.0025
2196.00,0.0025
2195.00,0.0025
2194.00,0.0024
2193.00,0.0023
2192.00,0.0022
2191.00,0.0021
2190.00,0.0019
2189.00,0.0018
2188.00,0.0019
2187.00,0.0022
2186.00,0.0026
2185.00,0.0027
2184.00,0.0025
2183.00,0.0022
2182.00,0.0021
2181.00,0.0021
2180.00,0.0023
2179.00,0.0025
2178.00,0.0026
2177.00,0.0027
2176.00,0.0027
2175.00,0.0026
2174.00,0.0025
2173.00,0.0024
2172.00,0.0024
2171.00,0.0026
2170.00,0.0028
2169.00,0.0030
2168.00,0.0032
2167.00,0.0033
2166.00,0.0035
2165.00,0.0037
2164.00,0.0039
2163.00,0.0041
2162.00,0.0040
2161.00,0.0038
2160.00,0.0032
2159.00,0.0025
2158.00,0.0019
2157.00,0.0016
2156.00,0.0016
2155.00,0.0018
2154.00,0.0021
2153.00,0.0023
2152.00,0.0024
2151.00,0.0023
2150.00,0.0021
2149.00,0.0020
2148.00,0.0021
2147.00,0.0023
2146.00,0.0025
2145.00,0.0027
2144.00,0.0028
2143.00,0.0029
2142.00,0.0030
2141.00,0.0031
2140.00,0.0031
2139.00,0.0029
2138.00,0.0027
2137.00,0.0025
2136.00,0.0024
2135.00,0.0023
2134.00,0.0022
2133.00,0.0022
2132.00,0.0022
2131.00,0.0023
2130.00,0.0024
2129.00,0.0026
2128.00,0.0028
2127.00,0.0029
2126.00,0.0029
2125.00,0.0028
2124.00,0.0028
2123.00,0.0027
2122.00,0.0027
2121.00,0.0026
2120.00,0.0026
2119.00,0.0026
2118.00,0.0026
2117.00,0.0025
2116.00,0.0025
2115.00,0.0024
2114.00,0.0023
2113.00,0.0022
2112.00,0.0022
2111.00,0.0024
2110.00,0.0026
2109.00,0.0028
2108.00,0.0030
2107.00,0.0031
2106.00,0.0032
2105.00,0.0032
2104.00,0.0031
2103.00,0.0031
2102.00,0.0030
2101.00,0.0030
2100.00,0.0028
2099.00,0.0026
2098.00,0.0024
2097.00,0.0023
2096.00,0.0024
2095.00,0.0026
2094.00,0.0027
2093.00,0.0028
2092.00,0.0028
2091.00,0.0028
2090.00,0.0026
2089.00,0.0026
2088.00,0.0026
2087.00,0.0027
2086.00,0.0028
2085.00,0.0029
2084.00,0.0030
2083.00,0.0031
2082.00,0.0031
2081.00,0.0031
2080.00,0.0032
2079.00,0.0031
2078.00,0.0031
2077.00,0.0030
2076.00,0.0030
2075.00,0.0030
2074.00,0.0030
2073.00,0.0030
2072.00,0.0031
2071.00,0.0032
2070.00,0.0032
2069.00,0.0030
2068.00,0.0028
2067.00,0.0026
2066.00,0.0027
2065.00,0.0028
2064.00,0.0030
2063.00,0.0032
2062.00,0.0034
2061.00,0.0034
2060.00,0.0033
2059.00,0.0031
2058.00,0.0030
2057.00,0.0031
2056.00,0.0031
2055.00,0.0031
2054.00,0.0032
2053.00,0.0034
2052.00,0.0035
2051.00,0.0035
2050.00,0.0033
2049.00,0.0030
2048.00,0.0028
2047.00,0.0029
2046.00,0.0031
2045.00,0.0035
2044.00,0.0037
2043.00,0.0038
2042.00,0.0037
2041.00,0.0034
2040.00,0.0031
2039.00,0.0030
2038.00,0.0031
2037.00,0.0034
2036.00,0.0036
2035.00,0.0035
2034.00,0.0034
2033.00,0.0034
2032.00,0.0037
2031.00,0.0039
2030.00,0.0039
2029.00,0.0036
2028.00,0.0033
2027.00,0.0031
2026.00,0.0031
2025.00,0.0029
2024.00,0.0027
2023.00,0.0026
2022.00,0.0025
2021.00,0.0025
2020.00,0.0025
2019.00,0.0023
2018.00,0.0021
2017.00,0.0021
2016.00,0.0021
2015.00,0.0023
2014.00,0.0025
2013.00,0.0026
2012.00,0.0026
2011.00,0.0027
2010.00,0.0028
2009.00,0.0030
2008.00,0.0030
2007.00,0.0028
2006.00,0.0026
2005.00,0.0025
2004.00,0.0025
2003.00,0.0027
2002.00,0.0032
2001.00,0.0036
2000.00,0.0037
1999.00,0.0035
1998.00,0.0032
1997.00,0.0032
1996.00,0.0034
1995.00,0.0038
1994.00,0.0041
1993.00,0.0042
1992.00,0.0040
1991.00,0.0037
1990.00,0.0034
1989.00,0.0033
1988.00,0.0033
1987.00,0.0033
1986.00,0.0032
1985.00,0.0032
1984.00,0.0033
1983.00,0.0033
1982.00,0.0033
1981.00,0.0032
1980.00,0.0030
1979.00,0.0028
1978.00,0.0024
1977.00,0.0021
1976.00,0.0022
1975.00,0.0025
1974.00,0.0029
1973.00,0.0030
1972.00,0.0029
1971.00,0.0027
1970.00,0.0027
1969.00,0.0029
1968.00,0.0031
1967.00,0.0031
1966.00,0.0028
1965.00,0.0026
1964.00,0.0025
1963.00,0.0026
1962.00,0.0027
1961.00,0.0029
1960.00,0.0030
1959.00,0.0031
1958.00,0.0031
1957.00,0.0030
1956.00,0.0029
1955.00,0.0029
1954.00,0.0030
1953.00,0.0032
1952.00,0.0032
1951.00,0.0031
1950.00,0.0029
1949.00,0.0028
1948.00,0.0028
1947.00,0.0028
1946.00,0.0029
1945.00,0.0028
1944.00,0.0026
1943.00,0.0025
1942.00,0.0024
1941.00,0.0024
1940.00,0.0024
1939.00,0.0023
1938.00,0.0023
1937.00,0.0023
1936.00,0.0024
1935.00,0.0024
1934.00,0.0024
1933.00,0.0024
1932.00,0.0025
1931.00,0.0027
1930.00,0.0029
1929.00,0.0031
1928.00,0.0032
1927.00,0.0033
1926.00,0.0033
1925.00,0.0032
1924.00,0.0031
1923.00,0.0030
1922.00,0.0029
1921.00,0.0029
1920.00,0.0029
1919.00,0.0028
1918.00,0.0027
1917.00,0.0028
1916.00,0.0029
1915.00,0.0030
1914.00,0.0030
1913.00,0.0030
1912.00,0.0030
1911.00,0.0029
1910.00,0.0029
1909.00,0.0027
1908.00,0.0027
1907.00,0.0026
1906.00,0.0027
1905.00,0.0028
1904.00,0.0029
1903.00,0.0030
1902.00,0.0030
1901.00,0.0029
1900.00,0.0029
1899.00,0.0030
1898.00,0.0030
1897.00,0.0030
1896.00,0.0029
1895.00,0.0027
1894.00,0.0027
1893.00,0.0028
1892.00,0.0028
1891.00,0.0029
1890.00,0.0029
1889.00,0.0030
1888.00,0.0029
1887.00,0.0029
1886.00,0.0029
1885.00,0.0029
1884.00,0.0029
1883.00,0.0030
1882.00,0.0030
1881.00,0.0030
1880.00,0.0030
1879.00,0.0030
1878.00,0.0029
1877.00,0.0028
1876.00,0.0028
1875.00,0.0029
1874.00,0.0030
1873.00,0.0031
1872.00,0.0032
1871.00,0.0032
1870.00,0.0032
1869.00,0.0032
1868.00,0.0031
1867.00,0.0031
1866.00,0.0031
1865.00,0.0031
1864.00,0.0031
1863.00,0.0030
1862.00,0.0030
1861.00,0.0029
1860.00,0.0028
1859.00,0.0028
1858.00,0.0028
1857.00,0.0029
1856.00,0.0030
1855.00,0.0030
1854.00,0.0030
1853.00,0.0030
1852.00,0.0030
1851.00,0.0031
1850.00,0.0032
1849.00,0.0032
1848.00,0.0032
1847.00,0.0032
1846.00,0.0032
1845.00,0.0033
1844.00,0.0033
1843.00,0.0032
1842.00,0.0032
1841.00,0.0032
1840.00,0.0031
1839.00,0.0031
1838.00,0.0032
1837.00,0.0032
1836.00,0.0032
1835.00,0.0032
1834.00,0.0032
1833.00,0.0032
1832.00,0.0032
1831.00,0.0032
1830.00,0.0033
1829.00,0.0032
1828.00,0.0032
1827.00,0.0032
1826.00,0.0032
1825.00,0.0031
1824.00,0.0031
1823.00,0.0032
1822.00,0.0032
1821.00,0.0032
1820.00,0.0032
1819.00,0.0031
1818.00,0.0031
1817.00,0.0031
1816.00,0.0030
1815.00,0.0030
1814.00,0.0030
1813.00,0.0031
1812.00,0.0031
1811.00,0.0031
1810.00,0.0032
1809.00,0.0032
1808.00,0.0032
1807.00,0.0032
1806.00,0.0033
1805.00,0.0033
1804.00,0.0033
1803.00,0.0033
1802.00,0.0032
1801.00,0.0032
1800.00,0.0032
1799.00,0.0033
1798.00,0.0033
1797.00,0.0034
1796.00,0.0034
1795.00,0.0034
1794.00,0.0034
1793.00,0.0034
1792.00,0.0034
1791.00,0.0034
1790.00,0.0033
1789.00,0.0032
1788.00,0.0032
1787.00,0.0032
1786.00,0.0033
1785.00,0.0033
1784.00,0.0034
1783.00,0.0034
1782.00,0.0033
1781.00,0.0033
1780.00,0.0032
1779.00,0.0032
1778.00,0.0032
1777.00,0.0033
1776.00,0.0033
1775.00,0.0034
1774.00,0.0034
1773.00,0.0033
1772.00,0.0032
1771.00,0.0031
1770.00,0.0031
1769.00,0.0031
1768.00,0.0032
1767.00,0.0032
1766.00,0.0033
1765.00,0.0033
1764.00,0.0033
1763.00,0.0033
1762.00,0.0033
1761.00,0.0032
1760.00,0.0033
1759.00,0.0032
1758.00,0.0032
1757.00,0.0032
1756.00,0.0034
1755.00,0.0035
1754.00,0.0037
1753.00,0.0037
1752.00,0.0037
1751.00,0.0037
1750.00,0.0037
1749.00,0.0038
1748.00,0.0038
1747.00,0.0039
1746.00,0.0039
1745.00,0.0039
1744.00,0.0039
1743.00,0.0039
1742.00,0.0038
1741.00,0.0038
1740.00,0.0038
1739.00,0.0038
1738.00,0.0038
1737.00,0.0037
1736.00,0.0037
1735.00,0.0037
1734.00,0.0036
1733.00,0.0035
1732.00,0.0033
1731.00,0.0032
1730.00,0.0031
1729.00,0.0030
1728.00,0.0030
1727.00,0.0030
1726.00,0.0030
1725.00,0.0030
1724.00,0.0030
1723.00,0.0031
1722.00,0.0031
1721.00,0.0030
1720.00,0.0029
1719.00,0.0028
1718.00,0.0029
1717.00,0.0030
1716.00,0.0031
1715.00,0.0031
1714.00,0.0032
1713.00,0.0032
1712.00,0.0032
1711.00,0.0032
1710.00,0.0032
1709.00,0.0031
1708.00,0.0031
1707.00,0.0030
1706.00,0.0029
1705.00,0.0028
1704.00,0.0028
1703.00,0.0028
1702.00,0.0027
1701.00,0.0027
1700.00,0.0025
1699.00,0.0025
1698.00,0.0026
1697.00,0.0026
1696.00,0.0025
1695.00,0.0024
1694.00,0.0024
1693.00,0.0024
1692.00,0.0023
1691.00,0.0023
1690.00,0.0024
1689.00,0.0024
1688.00,0.0024
1687.00,0.0024
1686.00,0.0023
1685.00,0.0022
1684.00,0.0020
1683.00,0.0019
1682.00,0.0019
1681.00,0.0019
1680.00,0.0018
1679.00,0.0018
1678.00,0.0019
1677.00,0.0019
1676.00,0.0020
1675.00,0.0020
1674.00,0.0020
1673.00,0.0020
1672.00,0.0019
1671.00,0.0018
1670.00,0.0017
1669.00,0.0015
1668.00,0.0015
1667.00,0.0014
1666.00,0.0014
1665.00,0.0014
1664.00,0.0014
1663.00,0.0013
1662.00,0.0013
1661.00,0.0013
1660.00,0.0013
1659.00,0.0015
1658.00,0.0016
1657.00,0.0015
1656.00,0.0014
1655.00,0.0011
1654.00,0.0010
1653.00,0.0009
1652.00,0.0010
1651.00,0.0011
1650.00,0.0011
1649.00,0.0011
1648.00,0.0010
1647.00,0.0009
1646.00,0.0009
1645.00,0.0009
1644.00,0.0010
1643.00,0.0009
1642.00,0.0009
1641.00,0.0008
1640.00,0.0008
1639.00,0.0007
1638.00,0.0007
1637.00,0.0007
1636.00,0.0007
1635.00,0.0006
1634.00,0.0005
1633.00,0.0004
1632.00,0.0002
1631.00,0.0002
1630.00,0.0001
1629.00,0.0000
1628.00,-0.0000
1627.00,-0.0001
1626.00,0.0000
1625.00,0.0001
1624.00,0.0001
1623.00,0.0000
1622.00,-0.0001
1621.00,-0.0002
1620.00,-0.0002
1619.00,-0.0002
1618.00,-0.0003
1617.00,-0.0004
1616.00,-0.0005
1615.00,-0.0006
1614.00,-0.0005
1613.00,-0.0005
1612.00,-0.0006
1611.00,-0.0006
1610.00,-0.0007
1609.00,-0.0008
1608.00,-0.0009
1607.00,-0.0009
1606.00,-0.0009
1605.00,-0.0009
1604.00,-0.0009
1603.00,-0.0010
1602.00,-0.0011
1601.00,-0.0013
1600.00,-0.0014
1599.00,-0.0014
1598.00,-0.0014
1597.00,-0.0013
1596.00,-0.0013
1595.00,-0.0013
1594.00,-0.0013
1593.00,-0.0013
1592.00,-0.0014
1591.00,-0.0015
1590.00,-0.0015
1589.00,-0.0016
1588.00,-0.0015
1587.00,-0.0015
1586.00,-0.0014
1585.00,-0.0015
1584.00,-0.0015
1583.00,-0.0015
1582.00,-0.0015
1581.00,-0.0016
1580.00,-0.0015
1579.00,-0.0015
1578.00,-0.0013
1577.00,-0.0012
1576.00,-0.0013
1575.00,-0.0015
1574.00,-0.0016
1573.00,-0.0016
1572.00,-0.0016
1571.00,-0.0016
1570.00,-0.0016
1569.00,-0.0017
1568.00,-0.0016
1567.00,-0.0016
1566.00,-0.0016
1565.00,-0.0016
1564.00,-0.0016
1563.00,-0.0016
1562.00,-0.0016
1561.00,-0.0017
1560.00,-0.0015
1559.00,-0.0014
1558.00,-0.0015
1557.00,-0.0016
1556.00,-0.0015
1555.00,-0.0015
1554.00,-0.0014
1553.00,-0.0013
1552.00,-0.0012
1551.00,-0.0013
1550.00,-0.0014
1549.00,-0.0014
1548.00,-0.0014
1547.00,-0.0014
1546.00,-0.0013
1545.00,-0.0012
1544.00,-0.0012
1543.00,-0.0012
1542.00,-0.0012
1541.00,-0.0011
1540.00,-0.0012
1539.00,-0.0014
1538.00,-0.0014
1537.00,-0.0013
1536.00,-0.0012
1535.00,-0.0012
1534.00,-0.0011
1533.00,-0.0011
1532.00,-0.0011
1531.00,-0.0010
1530.00,-0.0009
1529.00,-0.0008
1528.00,-0.0008
1527.00,-0.0008
1526.00,-0.0009
1525.00,-0.0008
1524.00,-0.0008
1523.00,-0.0007
1522.00,-0.0006
1521.00,-0.0006
1520.00,-0.0006
1519.00,-0.0005
1518.00,-0.0005
1517.00,-0.0005
1516.00,-0.0005
1515.00,-0.0005
1514.00,-0.0004
1513.00,-0.0003
1512.00,-0.0003
1511.00,-0.0003
1510.00,-0.0004
1509.00,-0.0004
1508.00,-0.0003
1507.00,-0.0003
1506.00,-0.0004
1505.00,-0.0002
1504.00,-0.0001
1503.00,-0.0001
1502.00,-0.0002
1501.00,-0.0002
1500.00,-0.0002
1499.00,-0.0001
1498.00,0.0001
1497.00,0.0002
1496.00,0.0002
1495.00,0.0002
1494.00,0.0001
1493.00,-0.0000
1492.00,-0.0001
1491.00,-0.0001
1490.00,-0.0001
1489.00,-0.0001
1488.00,-0.0001
1487.00,-0.0002
1486.00,-0.0002
1485.00,-0.0002
1484.00,-0.0002
1483.00,-0.0002
1482.00,-0.0002
1481.00,-0.0001
1480.00,-0.0002
1479.00,-0.0002
1478.00,-0.0002
1477.00,-0.0002
1476.00,-0.0002
1475.00,-0.0002
1474.00,-0.0002
1473.00,-0.0001
1472.00,-0.0001
1471.00,0.0001
1470.00,0.0002
1469.00,0.0004
1468.00,0.0005
1467.00,0.0005
1466.00,0.0004
1465.00,0.0003
1464.00,0.0002
1463.00,0.0001
1462.00,-0.0000
1461.00,-0.0001
1460.00,-0.0002
1459.00,-0.0002
1458.00,-0.0001
1457.00,-0.0001
1456.00,-0.0002
1455.00,-0.0002
1454.00,-0.0002
1453.00,-0.0002
1452.00,-0.0002
1451.00,-0.0002
1450.00,-0.0002
1449.00,-0.0002
1448.00,-0.0001
1447.00,-0.0001
1446.00,-0.0001
1445.00,-0.0001
1444.00,-0.0001
1443.00,-0.0002
1442.00,-0.0002
1441.00,-0.0002
1440.00,-0.0002
1439.00,-0.0001
1438.00,-0.0001
1437.00,-0.0001
1436.00,-0.0001
1435.00,-0.0002
1434.00,-0.0003
1433.00,-0.0003
1432.00,-0.0004
1431.00,-0.0005
1430.00,-0.0006
1429.00,-0.0007
1428.00,-0.0007
1427.00,-0.0007
1426.00,-0.0007
1425.00,-0.0007
1424.00,-0.0007
1423.00,-0.0007
1422.00,-0.0008
1421.00,-0.0008
1420.00,-0.0007
1419.00,-0.0007
1418.00,-0.0007
1417.00,-0.0007
1416.00,-0.0007
1415.00,-0.0007
1414.00,-0.0008
1413.00,-0.0009
1412.00,-0.0011
1411.00,-0.0011
1410.00,-0.0012
1409.00,-0.0012
1408.00,-0.0012
1407.00,-0.0013
1406.00,-0.0014
1405.00,-0.0016
1404.00,-0.0017
1403.00,-0.0018
1402.00,-0.0018
1401.00,-0.0019
1400.00,-0.0021
1399.00,-0.0022
1398.00,-0.0022
1397.00,-0.0023
1396.00,-0.0023
1395.00,-0.0024
1394.00,-0.0024
1393.00,-0.0024
1392.00,-0.0024
1391.00,-0.0024
1390.00,-0.0024
1389.00,-0.0024
1388.00,-0.0024
1387.00,-0.0025
1386.00,-0.0026
1385.00,-0.0027
1384.00,-0.0027
1383.00,-0.0027
1382.00,-0.0026
1381.00,-0.0025
1380.00,-0.0025
1379.00,-0.0024
1378.00,-0.0024
1377.00,-0.0024
1376.00,-0.0023
1375.00,-0.0023
1374.00,-0.0023
1373.00,-0.0023
1372.00,-0.0022
1371.00,-0.0022
1370.00,-0.0022
1369.00,-0.0022
1368.00,-0.0022
1367.00,-0.0021
1366.00,-0.0021
1365.00,-0.0021
1364.00,-0.0021
1363.00,-0.0021
1362.00,-0.0021
1361.00,-0.0020
1360.00,-0.0020
1359.00,-0.0019
1358.00,-0.0018
1357.00,-0.0017
1356.00,-0.0016
1355.00,-0.0016
1354.00,-0.0016
1353.00,-0.0016
1352.00,-0.0017
1351.00,-0.0017
1350.00,-0.0018
1349.00,-0.0018
1348.00,-0.0018
1347.00,-0.0017
1346.00,-0.0017
1345.00,-0.0017
1344.00,-0.0017
1343.00,-0.0018
1342.00,-0.0017
1341.00,-0.0017
1340.00,-0.0017
1339.00,-0.0017
1338.00,-0.0017
1337.00,-0.0017
1336.00,-0.0017
1335.00,-0.0017
1334.00,-0.0016
1333.00,-0.0016
1332.00,-0.0016
1331.00,-0.0016
1330.00,-0.0016
1329.00,-0.0016
1328.00,-0.0016
1327.00,-0.0016
1326.00,-0.0016
1325.00,-0.0015
1324.00,-0.0015
1323.00,-0.0014
1322.00,-0.0013
1321.00,-0.0012
1320.00,-0.0011
1319.00,-0.0012
1318.00,-0.0013
1317.00,-0.0014
1316.00,-0.0015
1315.00,-0.0015
1314.00,-0.0015
1313.00,-0.0014
1312.00,-0.0013
1311.00,-0.0012
1310.00,-0.0011
1309.00,-0.0011
1308.00,-0.0011
1307.00,-0.0012
1306.00,-0.0012
1305.00,-0.0012
1304.00,-0.0011
1303.00,-0.0010
1302.00,-0.0009
1301.00,-0.0009
1300.00,-0.0010
1299.00,-0.0011
1298.00,-0.0011
1297.00,-0.0012
1296.00,-0.0013
1295.00,-0.0013
1294.00,-0.0012
1293.00,-0.0012
1292.00,-0.0011
1291.00,-0.0010
1290.00,-0.0010
1289.00,-0.0009
1288.00,-0.0010
1287.00,-0.0010
1286.00,-0.0011
1285.00,-0.0011
1284.00,-0.0010
1283.00,-0.0010
1282.00,-0.0010
1281.00,-0.0010
1280.00,-0.0011
1279.00,-0.0012
1278.00,-0.0013
1277.00,-0.0014
1276.00,-0.0014
1275.00,-0.0014
1274.00,-0.0014
1273.00,-0.0015
1272.00,-0.0015
1271.00,-0.0015
1270.00,-0.0015
1269.00,-0.0015
1268.00,-0.0015
1267.00,-0.0015
1266.00,-0.0015
1265.00,-0.0015
1264.00,-0.0016
1263.00,-0.0016
1262.00,-0.0017
1261.00,-0.0017
1260.00,-0.0017
1259.00,-0.0016
1258.00,-0.0016
1257.00,-0.0016
1256.00,-0.0017
1255.00,-0.0018
1254.00,-0.0018
1253.00,-0.0018
1252.00,-0.0017
1251.00,-0.0017
1250.00,-0.0018
1249.00,-0.0018
1248.00,-0.0018
1247.00,-0.0018
1246.00,-0.0017
1245.00,-0.0016
1244.00,-0.0015
1243.00,-0.0015
1242.00,-0.0016
1241.00,-0.0016
1240.00,-0.0017
1239.00,-0.0017
1238.00,-0.0016
1237.00,-0.0015
1236.00,-0.0015
1235.00,-0.0014
1234.00,-0.0014
1233.00,-0.0014
1232.00,-0.0014
1231.00,-0.0014
1230.00,-0.0014
1229.00,-0.0014
1228.00,-0.0014
1227.00,-0.0013
1226.00,-0.0012
1225.00,-0.0012
1224.00,-0.0013
1223.00,-0.0013
1222.00,-0.0012
1221.00,-0.0012
1220.00,-0.0011
1219.00,-0.0010
1218.00,-0.0010
1217.00,-0.0011
1216.00,-0.0010
1215.00,-0.0010
1214.00,-0.0010
1213.00,-0.0010
1212.00,-0.0010
1211.00,-0.0009
1210.00,-0.0008
1209.00,-0.0007
1208.00,-0.0006
1207.00,-0.0007
1206.00,-0.0007
1205.00,-0.0008
1204.00,-0.0009
1203.00,-0.0008
1202.00,-0.0008
1201.00,-0.0007
1200.00,-0.0007
1199.00,-0.0006
1198.00,-0.0006
1197.00,-0.0006
1196.00,-0.0006
1195.00,-0.0007
1194.00,-0.0007
1193.00,-0.0007
1192.00,-0.0006
1191.00,-0.0006
1190.00,-0.0006
1189.00,-0.0006
1188.00,-0.0007
1187.00,-0.0007
1186.00,-0.0007
1185.00,-0.0007
1184.00,-0.0007
1183.00,-0.0007
1182.00,-0.0008
1181.00,-0.0009
1180.00,-0.0010
1179.00,-0.0010
1178.00,-0.0010
1177.00,-0.0010
1176.00,-0.0010
1175.00,-0.0009
1174.00,-0.0009
1173.00,-0.0008
1172.00,-0.0008
1171.00,-0.0009
1170.00,-0.0009
1169.00,-0.0010
1168.00,-0.0011
1167.00,-0.0011
1166.00,-0.0011
1165.00,-0.0011
1164.00,-0.0012
1163.00,-0.0012
1162.00,-0.0011
1161.00,-0.0011
1160.00,-0.0011
1159.00,-0.0011
1158.00,-0.0011
1157.00,-0.0012
1156.00,-0.0011
1155.00,-0.0010
1154.00,-0.0009
1153.00,-0.0010
1152.00,-0.0011
1151.00,-0.0012
1150.00,-0.0012
1149.00,-0.0013
1148.00,-0.0013
1147.00,-0.0013
1146.00,-0.0013
1145.00,-0.0013
1144.00,-0.0012
1143.00,-0.0011
1142.00,-0.0009
1141.00,-0.0008
1140.00,-0.0008
1139.00,-0.0009
1138.00,-0.0010
1137.00,-0.0010
1136.00,-0.0009
1135.00,-0.0008
1134.00,-0.0007
1133.00,-0.0007
1132.00,-0.0008
1131.00,-0.0009
1130.00,-0.0009
1129.00,-0.0008
1128.00,-0.0007
1127.00,-0.0007
1126.00,-0.0008
1125.00,-0.0010
1124.00,-0.0011
1123.00,-0.0009
1122.00,-0.0006
1121.00,-0.0003
1120.00,-0.0001
1119.00,-0.0001
1118.00,-0.0002
1117.00,-0.0002
1116.00,-0.0002
1115.00,-0.0001
1114.00,-0.0001
1113.00,-0.0001
1112.00,-0.0002
1111.00,-0.0003
1110.00,-0.0003
1109.00,-0.0002
1108.00,-0.0002
1107.00,-0.0002
1106.00,-0.0003
1105.00,-0.0004
1104.00,-0.0005
1103.00,-0.0004
1102.00,-0.0003
1101.00,-0.0002
1100.00,-0.0002
1099.00,-0.0003
1098.00,-0.0003
1097.00,-0.0004
1096.00,-0.0005
1095.00,-0.0006
1094.00,-0.0006
1093.00,-0.0006
1092.00,-0.0005
1091.00,-0.0005
1090.00,-0.0006
1089.00,-0.0008
1088.00,-0.0010
1087.00,-0.0010
1086.00,-0.0010
1085.00,-0.0009
1084.00,-0.0008
1083.00,-0.0008
1082.00,-0.0007
1081.00,-0.0006
1080.00,-0.0005
1079.00,-0.0004
1078.00,-0.0002
1077.00,-0.0001
1076.00,-0.0000
1075.00,-0.0002
1074.00,-0.0004
1073.00,-0.0006
1072.00,-0.0007
1071.00,-0.0007
1070.00,-0.0008
1069.00,-0.0009
1068.00,-0.0010
1067.00,-0.0009
1066.00,-0.0008
1065.00,-0.0006
1064.00,-0.0004
1063.00,-0.0003
1062.00,-0.0003
1061.00,-0.0005
1060.00,-0.0007
1059.00,-0.0008
1058.00,-0.0007
1057.00,-0.0006
1056.00,-0.0004
1055.00,-0.0003
1054.00,-0.0003
1053.00,-0.0002
1052.00,-0.0001
1051.00,-0.0001
1050.00,-0.0001
1049.00,0.0001
1048.00,0.0002
1047.00,0.0002
1046.00,0.0002
1045.00,0.0003
1044.00,0.0004
1043.00,0.0004
1042.00,0.0004
1041.00,0.0002
1040.00,0.0000
1039.00,-0.0000
1038.00,0.0000
1037.00,0.0000
1036.00,-0.0000
1035.00,-0.0001
1034.00,-0.0001
1033.00,-0.0000
1032.00,0.0000
1031.00,-0.0000
1030.00,-0.0001
1029.00,-0.0002
1028.00,-0.0002
1027.00,-0.0001
1026.00,0.0000
1025.00,0.0001
1024.00,0.0001
1023.00,0.0001
1022.00,-0.0000
1021.00,-0.0001
1020.00,-0.0001
1019.00,-0.0001
1018.00,-0.0001
1017.00,-0.0001
1016.00,0.0000
1015.00,0.0002
1014.00,0.0003
1013.00,0.0004
1012.00,0.0004
1011.00,0.0004
1010.00,0.0005
1009.00,0.0005
1008.00,0.0005
1007.00,0.0004
1006.00,0.0003
1005.00,0.0003
1004.00,0.0004
1003.00,0.0005
1002.00,0.0006
1001.00,0.0006
1000.00,0.0005
999.00,0.0003
998.00,0.0001
997.00,0.0001
996.00,0.0003
995.00,0.0004
994.00,0.0005
993.00,0.0004
992.00,0.0003
991.00,0.0002
990.00,0.0001
989.00,0.0001
988.00,0.0002
987.00,0.0003
986.00,0.0004
985.00,0.0005
984.00,0.0005
983.00,0.0004
982.00,0.0003
981.00,0.0003
980.00,0.0004
979.00,0.0004
978.00,0.0003
977.00,0.0001
976.00,-0.0001
975.00,-0.0002
974.00,-0.0003
973.00,-0.0002
972.00,-0.0002
971.00,-0.0002
970.00,-0.0003
969.00,-0.0004
968.00,-0.0005
967.00,-0.0005
966.00,-0.0006
965.00,-0.0007
964.00,-0.0007
963.00,-0.0007
962.00,-0.0005
961.00,-0.0004
960.00,-0.0005
959.00,-0.0005
958.00,-0.0006
957.00,-0.0005
956.00,-0.0005
955.00,-0.0006
954.00,-0.0007
953.00,-0.0008
952.00,-0.0008
951.00,-0.0007
950.00,-0.0006
949.00,-0.0005
948.00,-0.0005
947.00,-0.0005
946.00,-0.0007
945.00,-0.0007
944.00,-0.0007
943.00,-0.0008
942.00,-0.0008
941.00,-0.0008
940.00,-0.0008
939.00,-0.0006
938.00,-0.0004
937.00,-0.0004
936.00,-0.0005
935.00,-0.0006
934.00,-0.0007
933.00,-0.0005
932.00,-0.0003
931.00,-0.0000
930.00,0.0001
929.00,0.0002
928.00,0.0002
927.00,0.0002
926.00,0.0003
925.00,0.0003
924.00,0.0004
923.00,0.0005
922.00,0.0005
921.00,0.0004
920.00,0.0003
919.00,0.0003
918.00,0.0003
917.00,0.0004
916.00,0.0005
915.00,0.0005
914.00,0.0004
913.00,0.0003
912.00,0.0003
911.00,0.0003
910.00,0.0002
909.00,-0.0000
908.00,-0.0003
907.00,-0.0004
906.00,-0.0004
905.00,-0.0001
904.00,0.0002
903.00,0.0006
902.00,0.0007
901.00,0.0007
900.00,0.0005
899.00,0.0005
898.00,0.0005
897.00,0.0006
896.00,0.0007
895.00,0.0006
894.00,0.0005
893.00,0.0004
892.00,0.0004
891.00,0.0004
890.00,0.0004
889.00,0.0005
888.00,0.0005
887.00,0.0004
886.00,0.0002
885.00,0.0000
884.00,0.0001
883.00,0.0004
882.00,0.0006
881.00,0.0006
880.00,0.0005
879.00,0.0004
878.00,0.0002
877.00,-0.0000
876.00,-0.0002
875.00,-0.0003
874.00,-0.0003
873.00,-0.0003
872.00,-0.0004
871.00,-0.0004
870.00,-0.0004
869.00,-0.0003
868.00,-0.0003
867.00,-0.0003
866.00,-0.0003
865.00,-0.0003
864.00,-0.0003
863.00,-0.0002
862.00,-0.0001
861.00,-0.0000
860.00,-0.0001
859.00,-0.0002
858.00,-0.0004
857.00,-0.0005
856.00,-0.0006
855.00,-0.0005
854.00,-0.0004
853.00,-0.0003
852.00,-0.0003
851.00,-0.0003
850.00,-0.0001
849.00,0.0001
848.00,0.0002
847.00,0.0003
846.00,0.0003
845.00,0.0003
844.00,0.0003
843.00,0.0002
842.00,0.0000
841.00,-0.0002
840.00,-0.0004
839.00,-0.0006
838.00,-0.0008
837.00,-0.0008
836.00,-0.0007
835.00,-0.0008
834.00,-0.0008
833.00,-0.0009
832.00,-0.0010
831.00,-0.0011
830.00,-0.0012
829.00,-0.0013
828.00,-0.0013
827.00,-0.0011
826.00,-0.0009
825.00,-0.0007
824.00,-0.0006
823.00,-0.0006
822.00,-0.0007
821.00,-0.0007
820.00,-0.0007
819.00,-0.0006
818.00,-0.0008
817.00,-0.0010
816.00,-0.0013
815.00,-0.0014
814.00,-0.0014
813.00,-0.0012
812.00,-0.0010
811.00,-0.0009
810.00,-0.0010
809.00,-0.0011
808.00,-0.0011
807.00,-0.0012
806.00,-0.0012
805.00,-0.0013
804.00,-0.0015
803.00,-0.0016
802.00,-0.0016
801.00,-0.0013
800.00,-0.0010
799.00,-0.0007
798.00,-0.0006
797.00,-0.0008
796.00,-0.0010
795.00,-0.0012
794.00,-0.0013
793.00,-0.0014
792.00,-0.0014
791.00,-0.0012
790.00,-0.0010
789.00,-0.0008
788.00,-0.0008
787.00,-0.0009
786.00,-0.0010
785.00,-0.0009
784.00,-0.0008
783.00,-0.0008
782.00,-0.0009
781.00,-0.0010
780.00,-0.0012
779.00,-0.0013
778.00,-0.0012
777.00,-0.0011
776.00,-0.0010
775.00,-0.0011
774.00,-0.0012
773.00,-0.0013
772.00,-0.0014
771.00,-0.0014
770.00,-0.0014
769.00,-0.0015
768.00,-0.0015
767.00,-0.0017
766.00,-0.0019
765.00,-0.0020
764.00,-0.0021
763.00,-0.0022
762.00,-0.0024
761.00,-0.0027
760.00,-0.0028
759.00,-0.0027
758.00,-0.0023
757.00,-0.0020
756.00,-0.0020
755.00,-0.0021
754.00,-0.0024
753.00,-0.0025
752.00,-0.0025
751.00,-0.0023
750.00,-0.0021
749.00,-0.0020
748.00,-0.0018
747.00,-0.0018
746.00,-0.0019
745.00,-0.0020
744.00,-0.0022
743.00,-0.0022
742.00,-0.0021
741.00,-0.0022
740.00,-0.0025
739.00,-0.0028
738.00,-0.0031
737.00,-0.0032
736.00,-0.0032
735.00,-0.0032
734.00,-0.0032
733.00,-0.0034
732.00,-0.0035
731.00,-0.0035
730.00,-0.0034
729.00,-0.0031
728.00,-0.0027
727.00,-0.0023
726.00,-0.0019
725.00,-0.0018
724.00,-0.0020
723.00,-0.0023
722.00,-0.0025
721.00,-0.0025
720.00,-0.0025
719.00,-0.0025
718.00,-0.0026
717.00,-0.0028
716.00,-0.0030
715.00,-0.0032
714.00,-0.0034
713.00,-0.0034
712.00,-0.0033
711.00,-0.0031
710.00,-0.0031
709.00,-0.0032
708.00,-0.0033
707.00,-0.0032
706.00,-0.0031
705.00,-0.0029
704.00,-0.0026
703.00,-0.0025
702.00,-0.0027
701.00,-0.0030
700.00,-0.0033
699.00,-0.0034
698.00,-0.0034
697.00,-0.0034
696.00,-0.0034
695.00,-0.0032
694.00,-0.0030
693.00,-0.0027
692.00,-0.0027
691.00,-0.0027
690.00,-0.0027
689.00,-0.0027
688.00,-0.0028
687.00,-0.0031
686.00,-0.0035
685.00,-0.0038
684.00,-0.0041
683.00,-0.0044
682.00,-0.0047
681.00,-0.0047
680.00,-0.0045
679.00,-0.0043
678.00,-0.0041
677.00,-0.0039
676.00,-0.0038
675.00,-0.0037
674.00,-0.0036
673.00,-0.0034
672.00,-0.0033
671.00,-0.0031
670.00,-0.0031
669.00,-0.0033
668.00,-0.0036
667.00,-0.0037
666.00,-0.0035
665.00,-0.0032
664.00,-0.0031
663.00,-0.0033
662.00,-0.0038
661.00,-0.0045
660.00,-0.0054
659.00,-0.0059
658.00,-0.0059
657.00,-0.0054
656.00,-0.0048
655.00,-0.0046
654.00,-0.0049
653.00,-0.0056
652.00,-0.0063
651.00,-0.0065
650.00,-0.0061
